300.01	0
299.998	10
299.997	20
300.002	30
300.052	40
300.049	50
300.066	60
300.088	70
300.15	80
300.138	90
300.152	100
300.141	110
300.084	120
300.086	130
300.042	140
300.034	150
300.006	160
299.996	170
300.003	180
299.924	190
299.751	200
299.928	210
300.459	220
301.007	230
300.58	240
299.927	250
299.637	260
299.876	270
299.995	280
300.037	290
300.043	300
300.047	310
300.069	320
300.126	330
300.136	340
300.195	350
300.211	360
300.219	370
300.19	380
300.184	390
300.154	400
300.098	410
300.094	420
300.071	430
300.079	440
300.044	450
300.002	460
300.022	470
299.994	480
300.001	490
299.984	500
299.998	510
299.99	520
299.984	530
300.033	540
300.015	550
300.009	560
299.972	570
300.003	580
299.995	590
299.993	600
300.01	610
300.004	620
300.008	630
300.01	640
299.986	650
300.008	660
300.006	670
299.994	680
300.013	690
300.014	700
299.991	710
300.018	720
300.002	730
300.01	740
299.995	750
299.994	760
300.012	770
299.993	780
300.001	790
299.981	800
300.021	810
300.023	820
299.997	830
300.047	840
300.035	850
299.989	860
300.012	870
300.018	880
300.023	890
300.01	900
299.997	910
300.046	920
300.009	930
300.01	940
300.016	950
300.03	960
300.026	970
300.079	980
300.122	990
300.159	1000
300.153	1010
300.167	1020
300.158	1030
300.085	1040
300.05	1050
300.066	1060
300.035	1070
300.038	1080
300.003	1090
300.015	1100
299.983	1110
299.84	1120
299.821	1130
300.299	1140
300.902	1150
300.809	1160
300.076	1170
299.685	1180
299.776	1190
299.988	1200
300.062	1210
300.056	1220
300.065	1230
300.074	1240
300.11	1250
300.122	1260
300.154	1270
300.2	1280
300.212	1290
300.246	1300
300.197	1310
300.158	1320
300.137	1330
300.126	1340
300.061	1350
300.066	1360
300.05	1370
300.021	1380
300.016	1390
300.009	1400
300.028	1410
300.02	1420
300.036	1430
300.022	1440
300.013	1450
300.02	1460
300.025	1470
299.983	1480
300.003	1490
300.0	1500
300.064	1510
300.006	1520
300.004	1530
300.029	1540
299.988	1550
300.02	1560
300.036	1570
300.025	1580
300.036	1590
300.034	1600
300.012	1610
300.014	1620
299.99	1630
300.008	1640
300.044	1650
299.993	1660
300.022	1670
300.017	1680
300.026	1690
300.006	1700
300.007	1710
300.021	1720
300.011	1730
300.015	1740
300.05	1750
300.063	1760
300.051	1770
300.033	1780
300.03	1790
300.025	1800
300.019	1810
300.013	1820
300.023	1830
300.038	1840
299.992	1850
300.011	1860
300.017	1870
300.012	1880
300.032	1890
300.072	1900
300.127	1910
300.151	1920
300.188	1930
300.171	1940
300.123	1950
300.144	1960
300.077	1970
300.071	1980
300.04	1990
300.057	2000
300.031	2010
300.045	2020
300.015	2030
299.915	2040
299.793	2050
300.114	2060
300.796	2070
300.984	2080
300.302	2090
299.745	2100
299.718	2110
299.953	2120
300.005	2130
300.043	2140
300.052	2150
300.078	2160
300.121	2170
300.144	2180
300.175	2190
300.22	2200
300.198	2210
300.214	2220
300.21	2230
300.199	2240
300.127	2250
300.121	2260
300.104	2270
300.057	2280
300.046	2290
300.016	2300
300.045	2310
299.978	2320
300.065	2330
300.034	2340
300.015	2350
300.023	2360
300.037	2370
300.022	2380
300.028	2390
300.022	2400
300.021	2410
299.997	2420
300.042	2430
299.998	2440
300.017	2450
300.01	2460
300.049	2470
300.013	2480
299.998	2490
300.026	2500
299.998	2510
300.03	2520
299.994	2530
300.039	2540
300.022	2550
300.022	2560
299.996	2570
300.027	2580
300.018	2590
300.008	2600
300.004	2610
300.019	2620
299.996	2630
300.021	2640
299.984	2650
300.047	2660
300.014	2670
300.023	2680
299.993	2690
299.999	2700
299.973	2710
300.019	2720
300.017	2730
300.016	2740
300.016	2750
300.032	2760
300.025	2770
300.03	2780
300.028	2790
300.013	2800
300.032	2810
300.091	2820
300.113	2830
300.138	2840
300.119	2850
300.172	2860
300.165	2870
300.149	2880
300.095	2890
300.081	2900
300.019	2910
300.032	2920
300.037	2930
300.043	2940
300.029	2950
299.971	2960
299.806	2970
299.96	2980
300.589	2990
301.014	3000
300.504	3010
299.85	3020
299.69	3030
299.905	3040
300.031	3050
300.041	3060
300.025	3070
300.074	3080
300.11	3090
300.131	3100
300.171	3110
300.192	3120
300.205	3130
300.229	3140
300.205	3150
300.188	3160
300.167	3170
300.103	3180
300.074	3190
300.064	3200
300.031	3210
300.03	3220
300.084	3230
300.024	3240
300.039	3250
300.027	3260
300.011	3270
300.018	3280
300.025	3290
300.028	3300
300.012	3310
300.041	3320
300.017	3330
300.013	3340
300.011	3350
300.024	3360
300.038	3370
300.027	3380
300.052	3390
300.023	3400
300.012	3410
300.036	3420
300.015	3430
300.026	3440
300.036	3450
300.012	3460
299.987	3470
300.014	3480
300.02	3490
299.967	3500
300.041	3510
300.045	3520
300.001	3530
300.017	3540
299.992	3550
299.99	3560
299.989	3570
299.982	3580
300.002	3590
300.049	3600
299.987	3610
300.006	3620
299.999	3630
300.013	3640
300.023	3650
300.028	3660
300.021	3670
300.012	3680
299.996	3690
300.004	3700
300.006	3710
300.022	3720
300.006	3730
300.035	3740
300.107	3750
300.132	3760
300.149	3770
300.171	3780
300.154	3790
300.154	3800
300.12	3810
300.111	3820
300.043	3830
299.998	3840
300.006	3850
299.995	3860
299.987	3870
299.99	3880
299.817	3890
299.82	3900
300.368	3910
300.954	3920
300.74	3930
300.033	3940
299.673	3950
299.787	3960
299.991	3970
300.041	3980
300.062	3990
300.049	4000
300.091	4010
300.089	4020
300.147	4030
300.181	4040
300.205	4050
300.226	4060
300.256	4070
300.175	4080
300.18	4090
300.142	4100
300.081	4110
300.083	4120
300.036	4130
300.049	4140
300.016	4150
300.016	4160
299.991	4170
300.017	4180
300.009	4190
300.017	4200
300.039	4210
300.0	4220
300.0	4230
300.053	4240
300.019	4250
300.017	4260
299.999	4270
300.012	4280
300.036	4290
300.005	4300
299.997	4310
299.988	4320
299.99	4330
300.026	4340
300.046	4350
300.004	4360
300.035	4370
299.979	4380
299.996	4390
300.04	4400
300.016	4410
299.985	4420
300.012	4430
300.001	4440
300.031	4450
299.994	4460
300.02	4470
300.008	4480
300.008	4490
300.004	4500
300.013	4510
300.014	4520
300.027	4530
300.012	4540
299.986	4550
299.974	4560
300.014	4570
300.037	4580
300.015	4590
300.024	4600
300.061	4610
300.0	4620
300.015	4630
300.02	4640
300.034	4650
300.033	4660
300.075	4670
300.109	4680
300.148	4690
300.169	4700
300.16	4710
300.123	4720
300.141	4730
300.077	4740
300.077	4750
300.011	4760
300.001	4770
299.975	4780
299.978	4790
299.979	4800
299.896	4810
299.787	4820
300.152	4830
300.829	4840
300.929	4850
300.227	4860
299.707	4870
299.754	4880
299.937	4890
299.993	4900
300.054	4910
300.046	4920
300.085	4930
300.118	4940
300.144	4950
300.152	4960
300.204	4970
300.201	4980
300.216	4990
300.196	5000
300.145	5010
300.137	5020
300.101	5030
300.069	5040
300.05	5050
300.033	5060
300.008	5070
299.993	5080
300.01	5090
299.972	5100
300.009	5110
299.98	5120
299.991	5130
299.999	5140
299.978	5150
300.005	5160
299.987	5170
300.02	5180
299.957	5190
299.964	5200
299.994	5210
300.009	5220
300.009	5230
300.01	5240
299.981	5250
300.002	5260
300.016	5270
300.029	5280
299.982	5290
299.98	5300
300.011	5310
299.975	5320
299.971	5330
299.983	5340
299.96	5350
300.008	5360
300.001	5370
299.977	5380
300.021	5390
300.002	5400
300.014	5410
299.98	5420
299.957	5430
300.03	5440
299.994	5450
300.016	5460
299.985	5470
300.001	5480
299.989	5490
300.025	5500
299.986	5510
300.005	5520
300.008	5530
299.99	5540
299.99	5550
300.015	5560
300.0	5570
300.032	5580
300.029	5590
300.078	5600
300.075	5610
300.13	5620
300.158	5630
300.13	5640
300.141	5650
300.048	5660
300.042	5670
300.028	5680
299.987	5690
299.988	5700
299.985	5710
299.979	5720
299.912	5730
299.74	5740
299.959	5750
300.549	5760
300.979	5770
300.437	5780
299.877	5790
299.664	5800
299.881	5810
299.977	5820
300.045	5830
300.014	5840
300.054	5850
300.092	5860
300.135	5870
300.159	5880
300.147	5890
300.207	5900
300.221	5910
300.164	5920
300.151	5930
300.091	5940
300.095	5950
300.067	5960
300.019	5970
300.045	5980
300.006	5990
299.963	6000
299.968	6010
299.988	6020
300.007	6030
300.01	6040
299.981	6050
299.943	6060
299.996	6070
299.998	6080
299.95	6090
299.963	6100
299.972	6110
299.993	6120
299.993	6130
299.964	6140
300.02	6150
300.008	6160
299.992	6170
299.954	6180
300.009	6190
299.974	6200
299.993	6210
299.965	6220
299.991	6230
299.977	6240
299.999	6250
299.984	6260
299.994	6270
300.001	6280
299.994	6290
300.001	6300
299.956	6310
299.974	6320
299.954	6330
299.968	6340
299.972	6350
300.003	6360
300.009	6370
299.978	6380
299.951	6390
299.988	6400
299.972	6410
300.006	6420
300.017	6430
299.966	6440
299.967	6450
299.977	6460
299.989	6470
299.989	6480
300.008	6490
300.017	6500
300.029	6510
300.05	6520
300.121	6530
300.111	6540
300.155	6550
300.113	6560
300.136	6570
300.104	6580
300.027	6590
300.026	6600
300.021	6610
299.97	6620
299.994	6630
299.987	6640
299.957	6650
299.799	6660
299.823	6670
300.373	6680
300.966	6690
300.638	6700
299.946	6710
299.63	6720
299.831	6730
299.958	6740
299.98	6750
300.053	6760
300.023	6770
300.03	6780
300.064	6790
300.13	6800
300.105	6810
300.159	6820
300.176	6830
300.162	6840
300.173	6850
300.134	6860
300.11	6870
300.065	6880
300.016	6890
300.007	6900
300.038	6910
300.023	6920
299.963	6930
299.982	6940
299.959	6950
299.976	6960
299.972	6970
299.976	6980
300.016	6990
300.003	7000
299.957	7010
300.003	7020
299.99	7030
299.99	7040
299.96	7050
300.008	7060
300.01	7070
299.987	7080
299.987	7090
299.971	7100
299.98	7110
299.985	7120
299.982	7130
299.975	7140
299.986	7150
300.019	7160
299.957	7170
300.0	7180
300.001	7190
299.966	7200
299.966	7210
299.981	7220
299.994	7230
299.956	7240
299.963	7250
299.991	7260
299.985	7270
299.972	7280
299.96	7290
299.988	7300
299.987	7310
299.974	7320
299.958	7330
299.999	7340
299.982	7350
299.96	7360
299.965	7370
299.99	7380
299.976	7390
300.003	7400
299.994	7410
299.972	7420
300.013	7430
300.059	7440
300.083	7450
300.119	7460
300.122	7470
300.115	7480
300.11	7490
300.075	7500
300.018	7510
300.03	7520
300.004	7530
300.009	7540
299.993	7550
299.979	7560
299.957	7570
299.848	7580
299.761	7590
300.141	7600
300.823	7610
300.822	7620
300.105	7630
299.675	7640
299.744	7650
299.92	7660
299.983	7670
299.996	7680
300.04	7690
300.039	7700
300.076	7710
300.103	7720
300.129	7730
300.141	7740
300.2	7750
300.182	7760
300.171	7770
300.148	7780
300.122	7790
300.062	7800
300.037	7810
299.995	7820
300.003	7830
300.027	7840
299.981	7850
299.996	7860
299.989	7870
299.988	7880
299.997	7890
299.99	7900
299.97	7910
299.968	7920
299.987	7930
299.974	7940
299.984	7950
300.005	7960
299.943	7970
299.951	7980
299.981	7990
299.965	8000
299.992	8010
299.981	8020
299.971	8030
300.02	8040
299.975	8050
299.997	8060
299.998	8070
299.985	8080
299.974	8090
299.968	8100
299.985	8110
299.995	8120
299.97	8130
299.992	8140
299.984	8150
299.993	8160
299.978	8170
299.962	8180
299.963	8190
299.955	8200
299.986	8210
300.003	8220
299.975	8230
299.971	8240
299.962	8250
299.978	8260
299.975	8270
299.993	8280
299.935	8290
299.981	8300
299.979	8310
299.985	8320
300.003	8330
299.969	8340
300.021	8350
300.041	8360
300.073	8370
300.107	8380
300.116	8390
300.139	8400
300.114	8410
300.095	8420
300.077	8430
299.994	8440
300.022	8450
299.97	8460
299.968	8470
299.953	8480
299.952	8490
299.916	8500
299.76	8510
300.023	8520
300.648	8530
300.973	8540
300.369	8550
299.806	8560
299.669	8570
299.885	8580
299.957	8590
299.999	8600
299.995	8610
300.047	8620
300.093	8630
300.107	8640
300.159	8650
300.18	8660
300.172	8670
300.204	8680
300.176	8690
300.115	8700
300.134	8710
300.094	8720
300.095	8730
300.001	8740
300.026	8750
300.005	8760
299.987	8770
299.999	8780
299.963	8790
299.996	8800
300.002	8810
299.974	8820
299.997	8830
300.011	8840
299.966	8850
299.955	8860
299.999	8870
299.962	8880
299.973	8890
299.978	8900
299.992	8910
300.009	8920
299.967	8930
299.993	8940
299.997	8950
299.966	8960
299.959	8970
299.995	8980
300.018	8990
299.971	9000
299.995	9010
299.967	9020
299.972	9030
299.98	9040
300.009	9050
299.992	9060
299.977	9070
299.97	9080
300.0	9090
300.014	9100
299.984	9110
299.97	9120
299.979	9130
299.979	9140
299.986	9150
299.994	9160
300.011	9170
299.979	9180
299.993	9190
299.986	9200
299.986	9210
299.992	9220
299.985	9230
299.984	9240
300.018	9250
299.974	9260
299.963	9270
300.051	9280
300.095	9290
300.094	9300
300.166	9310
300.169	9320
300.136	9330
300.13	9340
300.069	9350
300.05	9360
300.04	9370
300.009	9380
299.997	9390
299.978	9400
299.99	9410
299.939	9420
299.774	9430
299.899	9440
300.376	9450
300.966	9460
300.635	9470
299.926	9480
299.647	9490
299.84	9500
299.981	9510
299.989	9520
300.032	9530
300.048	9540
300.089	9550
300.112	9560
300.134	9570
300.164	9580
300.167	9590
300.206	9600
300.161	9610
300.183	9620
300.136	9630
300.105	9640
300.081	9650
300.065	9660
300.031	9670
300.001	9680
300.016	9690
299.954	9700
300.041	9710
299.989	9720
299.967	9730
300.052	9740
299.979	9750
300.015	9760
299.989	9770
299.982	9780
299.997	9790
299.99	9800
300.014	9810
299.988	9820
300.002	9830
300.028	9840
299.989	9850
300.018	9860
300.008	9870
300.009	9880
300.017	9890
300.003	9900
299.974	9910
299.993	9920
299.995	9930
300.027	9940
299.975	9950
299.978	9960
300.029	9970
299.962	9980
299.999	9990
299.992	10000
299.977	10010
300.029	10020
299.991	10030
299.999	10040
299.978	10050
299.979	10060
300.044	10070
300.01	10080
300.02	10090
300.014	10100
299.981	10110
299.996	10120
299.998	10130
299.981	10140
300.004	10150
299.985	10160
300.047	10170
299.978	10180
300.015	10190
300.058	10200
300.07	10210
300.09	10220
300.138	10230
300.124	10240
300.139	10250
300.143	10260
300.107	10270
300.064	10280
300.048	10290
300.067	10300
300.014	10310
300.013	10320
300.023	10330
299.992	10340
299.878	10350
299.809	10360
300.201	10370
300.866	10380
300.815	10390
300.104	10400
299.708	10410
299.767	10420
299.967	10430
300.049	10440
300.014	10450
300.084	10460
300.113	10470
300.104	10480
300.138	10490
300.152	10500
300.172	10510
300.226	10520
300.186	10530
300.208	10540
300.172	10550
300.115	10560
300.103	10570
300.096	10580
300.042	10590
300.026	10600
300.039	10610
300.009	10620
300.006	10630
300.013	10640
300.008	10650
299.998	10660
299.999	10670
299.989	10680
300.038	10690
300.019	10700
300.025	10710
300.008	10720
299.982	10730
299.986	10740
300.022	10750
299.999	10760
300.01	10770
299.997	10780
300.024	10790
299.988	10800
300.01	10810
300.0	10820
300.021	10830
300.011	10840
300.022	10850
299.998	10860
299.999	10870
300.0	10880
300.006	10890
300.003	10900
300.036	10910
300.01	10920
300.01	10930
300.038	10940
300.041	10950
300.046	10960
300.025	10970
300.004	10980
299.989	10990
300.024	11000
300.027	11010
300.014	11020
299.985	11030
299.999	11040
300.001	11050
300.035	11060
300.057	11070
300.044	11080
299.985	11090
300.002	11100
300.002	11110
300.024	11120
300.079	11130
300.098	11140
300.094	11150
300.187	11160
300.148	11170
300.14	11180
300.094	11190
300.09	11200
300.068	11210
300.053	11220
299.981	11230
300.014	11240
300.014	11250
299.995	11260
299.929	11270
299.793	11280
300.042	11290
300.702	11300
300.949	11310
300.334	11320
299.752	11330
299.76	11340
299.923	11350
300.001	11360
300.011	11370
300.056	11380
300.087	11390
300.105	11400
300.1	11410
300.171	11420
300.187	11430
300.203	11440
300.19	11450
300.197	11460
300.171	11470
300.152	11480
300.12	11490
300.084	11500
300.042	11510
300.043	11520
300.026	11530
300.058	11540
299.997	11550
299.996	11560
300.028	11570
299.988	11580
300.015	11590
300.022	11600
300.019	11610
300.037	11620
300.029	11630
300.018	11640
299.987	11650
300.013	11660
300.01	11670
300.024	11680
300.008	11690
300.022	11700
299.985	11710
300.04	11720
300.007	11730
300.006	11740
300.0	11750
299.975	11760
300.048	11770
300.014	11780
300.036	11790
300.017	11800
300.011	11810
300.027	11820
300.002	11830
300.041	11840
300.003	11850
300.001	11860
300.026	11870
299.995	11880
300.034	11890
300.021	11900
300.034	11910
300.004	11920
300.021	11930
300.036	11940
300.007	11950
300.001	11960
300.009	11970
300.029	11980
300.022	11990
299.999	12000
300.036	12010
300.023	12020
300.016	12030
300.049	12040
300.068	12050
300.066	12060
300.129	12070
300.173	12080
300.162	12090
300.189	12100
300.169	12110
300.112	12120
300.074	12130
300.064	12140
300.023	12150
300.055	12160
300.017	12170
300.032	12180
299.981	12190
299.783	12200
299.957	12210
300.529	12220
301.0	12230
300.58	12240
299.891	12250
299.687	12260
299.844	12270
299.999	12280
300.035	12290
300.089	12300
300.084	12310
300.105	12320
300.124	12330
300.151	12340
300.191	12350
300.233	12360
300.208	12370
300.233	12380
300.19	12390
300.153	12400
300.158	12410
300.116	12420
300.043	12430
300.074	12440
300.033	12450
300.035	12460
300.043	12470
300.019	12480
300.03	12490
300.01	12500
299.981	12510
300.046	12520
300.023	12530
300.014	12540
300.022	12550
300.022	12560
300.009	12570
300.016	12580
300.032	12590
300.016	12600
300.038	12610
300.017	12620
300.033	12630
300.042	12640
299.995	12650
300.044	12660
300.022	12670
300.003	12680
300.021	12690
300.07	12700
300.016	12710
300.036	12720
300.052	12730
300.015	12740
300.04	12750
300.057	12760
300.043	12770
299.985	12780
300.035	12790
300.026	12800
300.044	12810
300.028	12820
300.008	12830
299.999	12840
300.029	12850
300.008	12860
300.014	12870
299.986	12880
300.004	12890
300.015	12900
300.002	12910
300.013	12920
300.035	12930
300.024	12940
300.04	12950
300.053	12960
300.104	12970
300.089	12980
300.126	12990
300.172	13000
300.164	13010
300.197	13020
300.139	13030
300.115	13040
300.094	13050
300.071	13060
300.056	13070
300.034	13080
300.016	13090
300.02	13100
299.971	13110
299.835	13120
299.846	13130
300.302	13140
300.967	13150
300.803	13160
300.078	13170
299.685	13180
299.814	13190
299.956	13200
300.002	13210
300.06	13220
300.067	13230
300.05	13240
300.086	13250
300.128	13260
300.18	13270
300.19	13280
300.252	13290
300.221	13300
300.231	13310
300.186	13320
300.121	13330
300.11	13340
300.091	13350
300.049	13360
300.042	13370
300.038	13380
300.004	13390
300.041	13400
299.997	13410
300.037	13420
300.025	13430
300.027	13440
300.038	13450
300.047	13460
300.026	13470
299.986	13480
300.0	13490
300.032	13500
299.973	13510
300.031	13520
300.024	13530
300.015	13540
300.031	13550
300.038	13560
300.008	13570
300.014	13580
300.041	13590
299.998	13600
300.013	13610
300.023	13620
300.019	13630
300.051	13640
300.004	13650
300.023	13660
299.994	13670
300.003	13680
300.023	13690
299.995	13700
300.045	13710
300.0	13720
300.033	13730
300.022	13740
299.998	13750
300.017	13760
299.999	13770
300.032	13780
300.004	13790
300.031	13800
300.019	13810
299.976	13820
299.99	13830
300.018	13840
299.99	13850
300.002	13860
300.029	13870
300.021	13880
300.065	13890
300.046	13900
300.07	13910
300.153	13920
300.166	13930
300.143	13940
300.15	13950
300.099	13960
300.081	13970
300.071	13980
300.033	13990
300.039	14000
300.031	14010
300.019	14020
300.011	14030
299.934	14040
299.784	14050
300.086	14060
300.782	14070
300.959	14080
300.268	14090
299.765	14100
299.69	14110
299.958	14120
299.999	14130
300.057	14140
300.074	14150
300.081	14160
300.066	14170
300.127	14180
300.136	14190
300.188	14200
300.199	14210
300.189	14220
300.185	14230
300.161	14240
300.102	14250
300.103	14260
300.085	14270
299.994	14280
300.043	14290
300.035	14300
299.979	14310
300.017	14320
300.008	14330
300.0	14340
300.015	14350
300.014	14360
300.02	14370
300.01	14380
300.013	14390
300.01	14400
300.01	14410
300.05	14420
300.017	14430
300.027	14440
299.987	14450
299.988	14460
300.03	14470
300.019	14480
299.995	14490
300.012	14500
300.039	14510
300.042	14520
299.994	14530
299.975	14540
299.993	14550
299.991	14560
299.986	14570
299.952	14580
299.997	14590
299.993	14600
299.95	14610
299.997	14620
300.032	14630
300.016	14640
300.017	14650
300.057	14660
300.009	14670
299.993	14680
299.985	14690
299.987	14700
300.019	14710
299.99	14720
300.017	14730
300.007	14740
300.039	14750
300.02	14760
300.009	14770
300.028	14780
299.975	14790
300.004	14800
300.058	14810
300.069	14820
300.048	14830
300.104	14840
300.147	14850
300.15	14860
300.148	14870
300.152	14880
300.116	14890
300.049	14900
300.014	14910
300.006	14920
299.992	14930
300.02	14940
300.03	14950
299.935	14960
299.76	14970
299.947	14980
300.525	14990
301.012	15000
300.453	15010
299.883	15020
299.682	15030
299.881	15040
299.978	15050
300.042	15060
300.015	15070
300.066	15080
300.091	15090
300.119	15100
300.15	15110
300.145	15120
300.159	15130
300.176	15140
300.161	15150
300.186	15160
300.12	15170
300.087	15180
300.06	15190
300.044	15200
300.014	15210
300.019	15220
299.987	15230
299.987	15240
300.014	15250
300.017	15260
299.989	15270
299.959	15280
299.987	15290
300.016	15300
299.99	15310
300.021	15320
300.007	15330
300.009	15340
299.982	15350
300.005	15360
300.012	15370
300.003	15380
300.021	15390
300.011	15400
299.99	15410
300.001	15420
300.007	15430
299.992	15440
299.969	15450
300.022	15460
299.964	15470
300.007	15480
299.979	15490
299.994	15500
299.996	15510
300.017	15520
299.993	15530
300.009	15540
300.004	15550
299.986	15560
299.994	15570
299.995	15580
300.014	15590
299.978	15600
299.983	15610
300.003	15620
299.995	15630
300.003	15640
300.013	15650
299.989	15660
299.977	15670
299.991	15680
300.018	15690
300.029	15700
299.98	15710
300.038	15720
299.994	15730
300.059	15740
300.053	15750
300.068	15760
300.129	15770
300.141	15780
300.127	15790
300.092	15800
300.087	15810
300.062	15820
300.029	15830
300.034	15840
300.01	15850
300.004	15860
300.006	15870
299.926	15880
299.783	15890
299.803	15900
300.358	15910
300.92	15920
300.707	15930
300.028	15940
299.662	15950
299.765	15960
299.943	15970
300.025	15980
300.059	15990
300.038	16000
300.074	16010
300.089	16020
300.151	16030
300.114	16040
300.176	16050
300.18	16060
300.218	16070
300.161	16080
300.15	16090
300.084	16100
300.08	16110
300.046	16120
300.025	16130
300.025	16140
300.001	16150
299.98	16160
299.993	16170
299.969	16180
300.034	16190
299.943	16200
299.951	16210
299.969	16220
299.983	16230
300.006	16240
300.002	16250
299.981	16260
299.983	16270
299.974	16280
299.985	16290
299.994	16300
299.978	16310
299.983	16320
300.039	16330
299.975	16340
300.005	16350
299.926	16360
299.961	16370
299.995	16380
300.003	16390
299.915	16400
299.976	16410
299.996	16420
299.989	16430
299.954	16440
299.975	16450
299.984	16460
299.998	16470
299.988	16480
299.959	16490
299.976	16500
300.009	16510
299.974	16520
299.98	16530
299.957	16540
299.99	16550
299.977	16560
300.0	16570
299.981	16580
300.001	16590
300.009	16600
299.997	16610
299.968	16620
300.0	16630
299.954	16640
300.03	16650
300.013	16660
300.05	16670
300.076	16680
300.112	16690
300.101	16700
300.151	16710
300.132	16720
300.098	16730
300.052	16740
300.026	16750
300.009	16760
299.968	16770
299.994	16780
300.0	16790
299.975	16800
299.808	16810
299.749	16820
300.131	16830
300.795	16840
300.899	16850
300.182	16860
299.696	16870
299.687	16880
299.897	16890
299.958	16900
300.02	16910
300.011	16920
300.042	16930
300.077	16940
300.101	16950
300.138	16960
300.182	16970
300.205	16980
300.195	16990
300.212	17000
300.135	17010
300.109	17020
300.08	17030
300.042	17040
300.004	17050
299.99	17060
300.007	17070
299.982	17080
300.019	17090
299.958	17100
299.984	17110
299.973	17120
299.981	17130
299.967	17140
299.988	17150
299.983	17160
299.99	17170
300.006	17180
299.977	17190
299.973	17200
300.001	17210
299.972	17220
299.962	17230
299.966	17240
299.984	17250
299.956	17260
299.959	17270
300.009	17280
299.944	17290
299.96	17300
299.959	17310
300.021	17320
299.995	17330
300.0	17340
299.996	17350
299.96	17360
299.986	17370
299.989	17380
299.996	17390
300.008	17400
299.992	17410
299.978	17420
299.99	17430
299.974	17440
299.973	17450
299.972	17460
299.968	17470
299.966	17480
299.967	17490
299.996	17500
300.003	17510
299.997	17520
299.972	17530
299.974	17540
299.957	17550
299.972	17560
299.998	17570
299.97	17580
299.998	17590
300.047	17600
300.058	17610
300.123	17620
300.132	17630
300.13	17640
300.074	17650
300.06	17660
300.035	17670
299.998	17680
299.982	17690
300.02	17700
299.971	17710
299.983	17720
299.929	17730
299.76	17740
299.959	17750
300.54	17760
300.985	17770
300.419	17780
299.833	17790
299.652	17800
299.844	17810
299.961	17820
300.01	17830
300.048	17840
300.051	17850
300.061	17860
300.099	17870
300.157	17880
300.157	17890
300.181	17900
300.2	17910
300.178	17920
300.12	17930
300.11	17940
300.068	17950
300.049	17960
300.059	17970
300.039	17980
299.999	17990
300.004	18000
299.965	18010
299.989	18020
299.964	18030
299.985	18040
299.994	18050
299.981	18060
299.988	18070
299.985	18080
299.955	18090
299.989	18100
299.969	18110
299.98	18120
299.975	18130
299.998	18140
300.009	18150
299.98	18160
299.975	18170
299.994	18180
299.985	18190
299.976	18200
299.976	18210
300.015	18220
299.999	18230
299.943	18240
299.983	18250
300.004	18260
299.973	18270
299.982	18280
299.952	18290
299.994	18300
299.974	18310
299.973	18320
299.982	18330
299.963	18340
299.976	18350
299.981	18360
299.982	18370
299.966	18380
299.956	18390
300.013	18400
299.953	18410
299.957	18420
300.005	18430
299.989	18440
299.987	18450
299.983	18460
299.962	18470
300.002	18480
299.981	18490
299.992	18500
300.018	18510
300.02	18520
300.099	18530
300.142	18540
300.098	18550
300.15	18560
300.064	18570
300.067	18580
300.03	18590
300.029	18600
300.021	18610
300.028	18620
299.961	18630
299.977	18640
299.957	18650
299.81	18660
299.846	18670
300.346	18680
300.937	18690
300.656	18700
299.96	18710
299.679	18720
299.772	18730
299.935	18740
299.984	18750
300.017	18760
300.044	18770
300.061	18780
300.106	18790
300.139	18800
300.187	18810
300.175	18820
300.168	18830
300.183	18840
300.159	18850
300.147	18860
300.074	18870
300.037	18880
300.01	18890
300.018	18900
299.994	18910
300.005	18920
299.971	18930
299.998	18940
299.99	18950
299.999	18960
300.012	18970
299.992	18980
299.967	18990
299.984	19000
300.006	19010
299.946	19020
299.964	19030
300.007	19040
299.974	19050
300.004	19060
299.981	19070
299.995	19080
299.987	19090
299.996	19100
300.026	19110
299.984	19120
299.992	19130
299.983	19140
299.975	19150
300.016	19160
299.962	19170
300.006	19180
299.982	19190
299.951	19200
300.018	19210
299.993	19220
299.998	19230
299.997	19240
299.979	19250
300.027	19260
299.966	19270
299.961	19280
299.986	19290
300.012	19300
300.015	19310
299.991	19320
300.015	19330
299.995	19340
300.019	19350
299.985	19360
300.01	19370
300.001	19380
299.979	19390
299.991	19400
299.986	19410
299.992	19420
300.027	19430
300.048	19440
300.08	19450
300.093	19460
300.135	19470
300.126	19480
300.138	19490
300.09	19500
300.086	19510
300.013	19520
300.012	19530
299.935	19540
300.028	19550
299.988	19560
299.985	19570
299.866	19580
299.804	19590
300.197	19600
300.805	19610
300.845	19620
300.156	19630
299.702	19640
299.711	19650
299.921	19660
300.025	19670
300.003	19680
300.036	19690
300.053	19700
300.105	19710
300.138	19720
300.157	19730
300.183	19740
300.194	19750
300.194	19760
300.158	19770
300.175	19780
300.107	19790
300.105	19800
300.038	19810
300.042	19820
300.027	19830
299.993	19840
299.995	19850
299.989	19860
300.002	19870
299.989	19880
299.967	19890
300.014	19900
300.011	19910
299.98	19920
300.008	19930
299.983	19940
299.99	19950
299.991	19960
299.993	19970
300.026	19980
300.023	19990
299.988	20000
299.986	20010
300.017	20020
300.001	20030
300.028	20040
300.027	20050
300.016	20060
299.992	20070
300.003	20080
300.003	20090
299.969	20100
300.009	20110
300.004	20120
300.001	20130
299.994	20140
299.996	20150
300.035	20160
300.005	20170
299.994	20180
300.031	20190
300.028	20200
299.993	20210
299.99	20220
300.005	20230
300.048	20240
300.001	20250
300.009	20260
299.995	20270
300.0	20280
300.024	20290
300.004	20300
300.024	20310
299.979	20320
300.019	20330
300.051	20340
300.03	20350
300.032	20360
300.141	20370
300.106	20380
300.157	20390
300.162	20400
300.168	20410
300.116	20420
300.072	20430
300.083	20440
300.052	20450
300.037	20460
300.015	20470
300.039	20480
299.993	20490
299.909	20500
299.739	20510
300.028	20520
300.669	20530
300.991	20540
300.404	20550
299.798	20560
299.694	20570
299.881	20580
300.003	20590
300.064	20600
300.024	20610
300.071	20620
300.115	20630
300.135	20640
300.14	20650
300.177	20660
300.206	20670
300.202	20680
300.187	20690
300.178	20700
300.191	20710
300.113	20720
300.093	20730
300.042	20740
300.048	20750
300.068	20760
300.015	20770
299.969	20780
299.996	20790
300.009	20800
300.029	20810
300.01	20820
300.007	20830
300.029	20840
300.019	20850
300.003	20860
300.014	20870
300.005	20880
300.014	20890
300.019	20900
300.002	20910
299.988	20920
299.998	20930
300.021	20940
299.99	20950
300.031	20960
300.013	20970
299.994	20980
300.007	20990
300.04	21000
300.026	21010
299.995	21020
300.03	21030
300.005	21040
300.011	21050
300.04	21060
299.991	21070
299.988	21080
300.021	21090
300.001	21100
299.986	21110
300.005	21120
299.987	21130
299.98	21140
300.021	21150
299.994	21160
299.991	21170
300.009	21180
300.023	21190
300.035	21200
299.981	21210
300.01	21220
300.019	21230
300.008	21240
300.014	21250
300.048	21260
300.019	21270
300.065	21280
300.093	21290
300.118	21300
300.177	21310
300.191	21320
300.162	21330
300.155	21340
300.101	21350
300.063	21360
300.036	21370
300.025	21380
300.004	21390
300.009	21400
300.003	21410
299.994	21420
299.771	21430
299.9	21440
300.443	21450
300.982	21460
300.582	21470
299.957	21480
299.674	21490
299.848	21500
299.999	21510
300.051	21520
300.067	21530
300.093	21540
300.101	21550
300.107	21560
300.178	21570
300.187	21580
300.206	21590
300.209	21600
300.2	21610
300.178	21620
300.156	21630
300.112	21640
300.093	21650
300.097	21660
300.047	21670
300.014	21680
300.024	21690
300.007	21700
300.006	21710
300.016	21720
300.045	21730
300.041	21740
299.983	21750
300.003	21760
300.037	21770
300.02	21780
300.023	21790
300.002	21800
299.988	21810
300.017	21820
300.018	21830
300.048	21840
299.999	21850
300.011	21860
299.999	21870
299.998	21880
300.04	21890
300.006	21900
300.016	21910
299.965	21920
300.016	21930
300.026	21940
300.023	21950
299.977	21960
300.022	21970
300.017	21980
300.023	21990
299.998	22000
300.015	22010
300.023	22020
300.02	22030
300.029	22040
300.048	22050
300.008	22060
300.002	22070
300.01	22080
300.035	22090
300.045	22100
300.006	22110
299.998	22120
300.014	22130
300.007	22140
300.023	22150
300.037	22160
300.022	22170
300.037	22180
300.05	22190
300.063	22200
300.049	22210
300.1	22220
300.154	22230
300.173	22240
300.184	22250
300.123	22260
300.098	22270
300.069	22280
300.078	22290
300.041	22300
300.05	22310
300.048	22320
300.024	22330
300.018	22340
299.87	22350
299.76	22360
300.233	22370
300.889	22380
300.853	22390
300.141	22400
299.707	22410
299.797	22420
299.993	22430
300.015	22440
299.998	22450
300.071	22460
300.094	22470
300.116	22480
300.151	22490
300.206	22500
300.217	22510
300.207	22520
300.239	22530
300.231	22540
300.185	22550
300.178	22560
300.095	22570
300.093	22580
300.036	22590
300.046	22600
300.022	22610
300.024	22620
300.007	22630
300.028	22640
300.037	22650
300.026	22660
300.002	22670
300.018	22680
300.011	22690
299.995	22700
300.045	22710
300.043	22720
300.031	22730
300.006	22740
299.989	22750
300.028	22760
300.017	22770
299.995	22780
300.007	22790
300.017	22800
300.03	22810
300.008	22820
300.008	22830
300.023	22840
300.013	22850
300.014	22860
299.997	22870
300.019	22880
300.03	22890
300.009	22900
300.03	22910
300.03	22920
300.016	22930
300.042	22940
300.045	22950
300.019	22960
300.018	22970
300.004	22980
300.018	22990
300.029	23000
300.021	23010
300.037	23020
300.046	23030
300.042	23040
300.025	23050
299.997	23060
300.044	23070
300.008	23080
300.044	23090
300.047	23100
300.042	23110
300.052	23120
300.072	23130
300.121	23140
300.14	23150
300.156	23160
300.185	23170
300.165	23180
300.145	23190
300.064	23200
300.048	23210
300.057	23220
300.032	23230
300.018	23240
299.987	23250
300.039	23260
299.923	23270
299.788	23280
300.089	23290
300.735	23300
300.953	23310
300.321	23320
299.767	23330
299.688	23340
299.911	23350
300.002	23360
300.049	23370
300.046	23380
300.061	23390
300.118	23400
300.152	23410
300.206	23420
300.166	23430
300.208	23440
300.2	23450
300.182	23460
300.175	23470
300.146	23480
300.125	23490
300.096	23500
300.083	23510
300.044	23520
300.044	23530
299.989	23540
300.007	23550
300.016	23560
300.02	23570
299.988	23580
300.006	23590
300.015	23600
300.005	23610
300.001	23620
300.028	23630
300.005	23640
300.03	23650
300.005	23660
300.015	23670
300.025	23680
300.013	23690
300.023	23700
299.973	23710
300.022	23720
299.994	23730
300.044	23740
299.987	23750
300.015	23760
300.028	23770
300.007	23780
300.009	23790
300.025	23800
300.06	23810
300.018	23820
300.018	23830
300.026	23840
300.015	23850
300.004	23860
300.018	23870
300.031	23880
300.014	23890
300.036	23900
300.004	23910
300.013	23920
300.013	23930
300.017	23940
299.987	23950
299.988	23960
300.025	23970
300.003	23980
299.991	23990
300.033	24000
300.017	24010
300.006	24020
300.014	24030
300.026	24040
300.067	24050
300.095	24060
300.107	24070
300.153	24080
300.165	24090
300.175	24100
300.138	24110
300.091	24120
300.073	24130
300.057	24140
300.036	24150
300.04	24160
300.041	24170
300.02	24180
299.962	24190
299.754	24200
299.907	24210
300.509	24220
301.021	24230
300.589	24240
299.883	24250
299.706	24260
299.861	24270
299.976	24280
300.04	24290
300.004	24300
300.047	24310
300.084	24320
300.135	24330
300.201	24340
300.178	24350
300.203	24360
300.244	24370
300.209	24380
300.189	24390
300.156	24400
300.131	24410
300.061	24420
300.051	24430
300.049	24440
300.049	24450
300.022	24460
300.002	24470
299.989	24480
300.06	24490
300.023	24500
299.994	24510
299.971	24520
300.009	24530
299.969	24540
300.024	24550
300.043	24560
300.016	24570
299.997	24580
300.028	24590
300.009	24600
299.993	24610
300.034	24620
300.018	24630
300.016	24640
300.009	24650
299.988	24660
299.981	24670
299.997	24680
300.019	24690
299.992	24700
300.014	24710
300.031	24720
299.973	24730
300.009	24740
300.004	24750
300.002	24760
300.002	24770
300.025	24780
300.0	24790
300.016	24800
300.004	24810
300.031	24820
299.999	24830
299.985	24840
299.991	24850
300.026	24860
299.997	24870
300.007	24880
300.037	24890
299.998	24900
299.992	24910
299.973	24920
299.997	24930
300.031	24940
300.035	24950
300.017	24960
300.038	24970
300.08	24980
300.09	24990
300.14	25000
300.17	25010
300.136	25020
300.131	25030
300.102	25040
300.081	25050
300.041	25060
299.993	25070
299.994	25080
299.989	25090
300.009	25100
299.949	25110
299.819	25120
299.805	25130
300.265	25140
300.906	25150
300.794	25160
300.057	25170
299.647	25180
299.755	25190
299.981	25200
300.018	25210
300.031	25220
300.055	25230
300.063	25240
300.11	25250
300.17	25260
300.19	25270
300.162	25280
300.228	25290
300.219	25300
300.206	25310
300.142	25320
300.105	25330
300.082	25340
300.062	25350
300.042	25360
300.046	25370
300.0	25380
300.021	25390
299.995	25400
300.013	25410
299.99	25420
299.996	25430
299.97	25440
300.012	25450
299.963	25460
299.991	25470
299.966	25480
299.994	25490
299.968	25500
299.986	25510
300.014	25520
300.005	25530
300.017	25540
299.999	25550
300.014	25560
300.01	25570
300.001	25580
299.993	25590
300.021	25600
299.961	25610
300.018	25620
299.981	25630
300.018	25640
300.001	25650
300.009	25660
299.972	25670
299.976	25680
299.992	25690
300.013	25700
299.959	25710
300.021	25720
299.996	25730
299.995	25740
299.967	25750
299.996	25760
299.987	25770
300.008	25780
300.008	25790
299.979	25800
299.958	25810
299.993	25820
299.996	25830
299.969	25840
299.99	25850
299.979	25860
299.973	25870
300.007	25880
300.037	25890
300.058	25900
300.06	25910
300.129	25920
300.121	25930
300.135	25940
300.141	25950
300.077	25960
300.033	25970
300.033	25980
300.005	25990
300.001	26000
299.978	26010
300.009	26020
299.957	26030
299.871	26040
299.773	26050
300.097	26060
300.752	26070
300.906	26080
300.282	26090
299.73	26100
299.697	26110
299.917	26120
300.023	26130
300.017	26140
300.017	26150
300.07	26160
300.073	26170
300.104	26180
300.155	26190
300.174	26200
300.145	26210
300.207	26220
300.159	26230
300.151	26240
300.07	26250
300.081	26260
300.061	26270
300.029	26280
300.019	26290
300.014	26300
300.007	26310
299.987	26320
299.972	26330
299.968	26340
300.006	26350
299.99	26360
300.029	26370
299.969	26380
299.958	26390
299.988	26400
299.961	26410
300.001	26420
299.994	26430
300.003	26440
300.046	26450
299.955	26460
300.0	26470
299.953	26480
299.97	26490
299.974	26500
299.98	26510
299.995	26520
300.004	26530
299.975	26540
299.958	26550
299.976	26560
299.985	26570
300.014	26580
300.003	26590
299.986	26600
299.974	26610
299.973	26620
299.988	26630
299.97	26640
300.01	26650
299.968	26660
300.006	26670
299.946	26680
299.989	26690
299.965	26700
299.98	26710
299.979	26720
300.002	26730
299.978	26740
299.99	26750
299.997	26760
299.987	26770
299.991	26780
299.983	26790
299.976	26800
300.01	26810
300.017	26820
300.077	26830
300.075	26840
300.134	26850
300.118	26860
300.144	26870
300.123	26880
300.093	26890
300.053	26900
300.016	26910
299.99	26920
300.012	26930
299.998	26940
299.987	26950
299.958	26960
299.766	26970
299.918	26980
300.52	26990
300.97	27000
300.499	27010
299.829	27020
299.627	27030
299.837	27040
299.986	27050
300.012	27060
300.033	27070
299.982	27080
300.084	27090
300.11	27100
300.12	27110
300.156	27120
300.161	27130
300.172	27140
300.166	27150
300.148	27160
300.127	27170
300.069	27180
300.046	27190
300.014	27200
300.025	27210
299.999	27220
299.992	27230
300.011	27240
300.008	27250
299.968	27260
299.988	27270
299.975	27280
299.972	27290
299.987	27300
299.975	27310
300.006	27320
299.971	27330
300.012	27340
299.996	27350
299.95	27360
300.007	27370
300.016	27380
299.986	27390
299.968	27400
300.001	27410
299.969	27420
299.94	27430
300.002	27440
299.994	27450
299.985	27460
299.995	27470
299.979	27480
299.969	27490
299.977	27500
299.965	27510
300.014	27520
299.96	27530
299.986	27540
299.969	27550
300.022	27560
300.0	27570
299.965	27580
299.988	27590
299.982	27600
299.98	27610
300.015	27620
299.961	27630
299.985	27640
300.004	27650
299.989	27660
300.01	27670
300.008	27680
299.974	27690
299.965	27700
299.989	27710
300.013	27720
300.029	27730
300.004	27740
300.044	27750
300.06	27760
300.086	27770
300.14	27780
300.137	27790
300.107	27800
300.041	27810
300.031	27820
300.012	27830
300.017	27840
299.979	27850
299.988	27860
299.974	27870
299.964	27880
299.798	27890
299.808	27900
300.316	27910
300.911	27920
300.704	27930
299.986	27940
299.643	27950
299.797	27960
299.938	27970
299.973	27980
300.023	27990
300.027	28000
300.048	28010
300.078	28020
300.119	28030
300.144	28040
300.201	28050
300.201	28060
300.16	28070
300.143	28080
300.116	28090
300.103	28100
300.083	28110
300.058	28120
300.028	28130
300.001	28140
299.984	28150
299.974	28160
299.975	28170
299.983	28180
299.971	28190
299.943	28200
300.023	28210
299.968	28220
299.989	28230
299.934	28240
299.977	28250
299.995	28260
299.992	28270
299.979	28280
299.948	28290
299.979	28300
299.976	28310
300.002	28320
299.986	28330
299.959	28340
299.967	28350
299.986	28360
299.991	28370
300.008	28380
299.979	28390
299.958	28400
299.978	28410
299.98	28420
299.976	28430
299.998	28440
300.014	28450
299.993	28460
299.997	28470
299.975	28480
299.99	28490
300.026	28500
299.978	28510
299.971	28520
299.977	28530
299.981	28540
299.993	28550
299.956	28560
299.948	28570
299.959	28580
299.992	28590
299.987	28600
299.972	28610
299.986	28620
299.985	28630
299.972	28640
299.998	28650
300.025	28660
300.065	28670
300.104	28680
300.105	28690
300.153	28700
300.17	28710
300.132	28720
300.117	28730
300.049	28740
300.047	28750
300.009	28760
300.003	28770
299.971	28780
299.977	28790
299.975	28800
299.868	28810
299.762	28820
300.116	28830
300.797	28840
300.94	28850
300.172	28860
299.737	28870
299.73	28880
299.901	28890
299.992	28900
299.974	28910
300.011	28920
300.038	28930
300.103	28940
300.127	28950
300.135	28960
300.163	28970
300.197	28980
300.149	28990
300.195	29000
300.143	29010
300.102	29020
300.091	29030
300.063	29040
300.055	29050
300.008	29060
299.976	29070
300.002	29080
299.965	29090
299.976	29100
299.966	29110
300.013	29120
299.985	29130
299.986	29140
299.993	29150
299.989	29160
299.996	29170
299.966	29180
299.958	29190
300.014	29200
300.028	29210
300.03	29220
300.017	29230
300.024	29240
300.031	29250
299.978	29260
299.99	29270
300.028	29280
300.024	29290
300.014	29300
300.03	29310
300.003	29320
300.006	29330
299.999	29340
300.026	29350
299.98	29360
300.003	29370
299.997	29380
299.957	29390
299.986	29400
300.022	29410
299.97	29420
299.942	29430
300.009	29440
300.035	29450
299.95	29460
299.964	29470
300.003	29480
299.995	29490
300.015	29500
300.005	29510
299.981	29520
300.002	29530
299.988	29540
299.989	29550
300.019	29560
300.024	29570
300.027	29580
300.049	29590
300.073	29600
300.097	29610
300.123	29620
300.164	29630
300.112	29640
300.123	29650
300.094	29660
300.049	29670
300.027	29680
299.994	29690
299.97	29700
300.001	29710
299.983	29720
299.92	29730
299.763	29740
299.975	29750
300.599	29760
301.017	29770
300.429	29780
299.824	29790
299.662	29800
299.895	29810
299.988	29820
299.997	29830
300.033	29840
300.052	29850
300.129	29860
300.108	29870
300.145	29880
300.208	29890
300.229	29900
300.204	29910
300.2	29920
300.162	29930
300.144	29940
300.097	29950
300.051	29960
300.048	29970
300.053	29980
300.0	29990
300.006	30000
299.989	30010
299.996	30020
300.018	30030
300.013	30040
299.978	30050
299.984	30060
300.023	30070
299.994	30080
300.001	30090
299.999	30100
299.979	30110
300.03	30120
300.013	30130
299.973	30140
299.988	30150
299.998	30160
300.002	30170
299.988	30180
300.024	30190
300.029	30200
300.036	30210
300.035	30220
299.992	30230
299.984	30240
299.999	30250
299.995	30260
300.035	30270
300.014	30280
299.986	30290
300.014	30300
300.004	30310
299.989	30320
299.99	30330
300.002	30340
300.016	30350
299.997	30360
300.0	30370
299.986	30380
299.995	30390
300.022	30400
300.016	30410
300.022	30420
300.035	30430
300.009	30440
300.004	30450
300.006	30460
300.011	30470
300.018	30480
299.997	30490
300.035	30500
300.044	30510
300.064	30520
300.142	30530
300.134	30540
300.101	30550
300.157	30560
300.106	30570
300.089	30580
300.072	30590
300.0	30600
300.009	30610
300.016	30620
299.977	30630
300.019	30640
299.963	30650
299.796	30660
299.851	30670
300.406	30680
300.976	30690
300.666	30700
299.967	30710
299.647	30720
299.812	30730
299.961	30740
300.032	30750
300.046	30760
300.076	30770
300.074	30780
300.105	30790
300.151	30800
300.186	30810
300.198	30820
300.229	30830
300.214	30840
300.168	30850
300.142	30860
300.11	30870
300.095	30880
300.073	30890
300.078	30900
300.06	30910
299.994	30920
300.044	30930
300.023	30940
300.009	30950
300.006	30960
300.006	30970
299.992	30980
300.026	30990
300.01	31000
300.01	31010
300.03	31020
300.046	31030
300.012	31040
300.032	31050
300.037	31060
300.047	31070
299.999	31080
300.006	31090
299.981	31100
299.994	31110
299.961	31120
300.018	31130
299.972	31140
300.023	31150
300.012	31160
300.033	31170
299.998	31180
300.047	31190
300.018	31200
300.011	31210
300.001	31220
300.025	31230
300.028	31240
300.058	31250
300.035	31260
300.027	31270
300.018	31280
300.015	31290
300.015	31300
300.015	31310
300.03	31320
300.031	31330
300.006	31340
300.005	31350
300.001	31360
300.019	31370
300.029	31380
300.012	31390
300.024	31400
300.048	31410
300.062	31420
300.036	31430
300.092	31440
300.093	31450
300.088	31460
300.187	31470
300.138	31480
300.166	31490
300.14	31500
300.073	31510
300.074	31520
300.048	31530
300.005	31540
299.999	31550
300.01	31560
299.998	31570
299.895	31580
299.799	31590
300.176	31600
300.868	31610
300.845	31620
300.185	31630
299.716	31640
299.732	31650
299.96	31660
300.052	31670
300.045	31680
300.077	31690
300.119	31700
300.121	31710
300.183	31720
300.167	31730
300.181	31740
300.193	31750
300.201	31760
300.207	31770
300.191	31780
300.13	31790
300.119	31800
300.066	31810
300.041	31820
300.051	31830
300.034	31840
300.016	31850
300.0	31860
300.04	31870
300.011	31880
300.012	31890
300.023	31900
300.03	31910
299.993	31920
300.041	31930
300.056	31940
300.02	31950
299.983	31960
300.035	31970
299.997	31980
300.027	31990
300.035	32000
300.052	32010
300.046	32020
300.022	32030
300.02	32040
300.002	32050
300.031	32060
300.04	32070
300.023	32080
300.031	32090
300.043	32100
300.01	32110
300.014	32120
300.024	32130
300.003	32140
300.034	32150
300.016	32160
300.043	32170
300.022	32180
300.003	32190
300.014	32200
300.06	32210
300.017	32220
300.047	32230
300.037	32240
300.02	32250
300.022	32260
300.021	32270
300.0	32280
300.015	32290
300.019	32300
300.007	32310
300.016	32320
299.976	32330
300.015	32340
300.031	32350
300.073	32360
300.095	32370
300.145	32380
300.147	32390
300.197	32400
300.152	32410
300.163	32420
300.127	32430
300.074	32440
300.07	32450
300.014	32460
300.0	32470
300.059	32480
300.031	32490
299.934	32500
299.773	32510
300.07	32520
300.693	32530
301.01	32540
300.4	32550
299.782	32560
299.681	32570
299.899	32580
300.046	32590
300.04	32600
300.058	32610
300.085	32620
300.133	32630
300.16	32640
300.189	32650
300.219	32660
300.17	32670
300.219	32680
300.224	32690
300.141	32700
300.155	32710
300.105	32720
300.109	32730
300.082	32740
300.045	32750
300.019	32760
299.99	32770
300.01	32780
300.016	32790
300.017	32800
300.021	32810
300.044	32820
300.006	32830
300.02	32840
300.038	32850
300.028	32860
300.023	32870
299.967	32880
299.989	32890
300.033	32900
300.027	32910
300.015	32920
300.005	32930
300.052	32940
300.017	32950
299.993	32960
299.999	32970
300.045	32980
300.008	32990
300.003	33000
300.041	33010
299.999	33020
300.031	33030
300.021	33040
299.993	33050
300.022	33060
300.016	33070
300.017	33080
300.049	33090
300.042	33100
300.025	33110
300.034	33120
300.019	33130
300.025	33140
300.022	33150
300.02	33160
299.973	33170
299.993	33180
300.008	33190
300.027	33200
300.011	33210
300.058	33220
299.988	33230
300.009	33240
299.997	33250
300.035	33260
300.027	33270
300.065	33280
300.108	33290
300.145	33300
300.164	33310
300.142	33320
300.176	33330
300.113	33340
300.106	33350
300.087	33360
300.033	33370
300.028	33380
300.044	33390
300.049	33400
300.021	33410
299.954	33420
299.797	33430
299.89	33440
300.457	33450
301.005	33460
300.641	33470
299.944	33480
299.675	33490
299.882	33500
299.98	33510
300.023	33520
300.053	33530
300.054	33540
300.097	33550
300.147	33560
300.152	33570
300.196	33580
300.211	33590
300.256	33600
300.189	33610
300.193	33620
300.152	33630
300.104	33640
300.1	33650
300.105	33660
300.052	33670
299.995	33680
300.031	33690
300.051	33700
300.029	33710
300.032	33720
300.026	33730
299.997	33740
300.01	33750
299.997	33760
300.048	33770
300.02	33780
300.028	33790
300.021	33800
300.043	33810
299.993	33820
300.005	33830
300.033	33840
300.01	33850
300.019	33860
299.993	33870
300.01	33880
300.019	33890
300.037	33900
300.023	33910
299.984	33920
299.999	33930
299.995	33940
300.021	33950
300.013	33960
300.015	33970
300.038	33980
300.014	33990
300.006	34000
299.982	34010
300.004	34020
300.032	34030
300.027	34040
300.017	34050
300.013	34060
300.012	34070
300.006	34080
299.993	34090
300.0	34100
300.045	34110
300.026	34120
300.028	34130
300.028	34140
300.023	34150
300.031	34160
300.025	34170
299.983	34180
299.983	34190
300.056	34200
300.05	34210
300.096	34220
300.124	34230
300.151	34240
300.164	34250
300.133	34260
300.118	34270
300.097	34280
300.057	34290
300.018	34300
300.017	34310
300.035	34320
300.006	34330
299.976	34340
299.879	34350
299.775	34360
300.224	34370
300.888	34380
300.826	34390
300.117	34400
299.693	34410
299.752	34420
299.981	34430
300.042	34440
300.05	34450
300.071	34460
300.066	34470
300.112	34480
300.131	34490
300.136	34500
300.204	34510
300.191	34520
300.22	34530
300.162	34540
300.143	34550
300.13	34560
300.099	34570
300.096	34580
300.057	34590
299.995	34600
300.033	34610
300.003	34620
300.013	34630
300.001	34640
300.004	34650
300.007	34660
300.006	34670
299.994	34680
299.998	34690
299.979	34700
299.975	34710
299.986	34720
299.996	34730
299.995	34740
300.009	34750
300.058	34760
299.993	34770
299.985	34780
299.99	34790
300.014	34800
300.014	34810
299.969	34820
299.993	34830
300.008	34840
299.974	34850
300.011	34860
299.997	34870
300.004	34880
300.023	34890
300.001	34900
300.017	34910
299.988	34920
299.98	34930
299.991	34940
300.047	34950
300.016	34960
299.988	34970
299.967	34980
300.009	34990
300.022	35000
300.023	35010
300.008	35020
299.996	35030
300.002	35040
300.026	35050
300.009	35060
299.999	35070
300.016	35080
299.98	35090
300.006	35100
300.024	35110
300.059	35120
300.06	35130
300.12	35140
300.1	35150
300.163	35160
300.182	35170
300.155	35180
300.081	35190
300.077	35200
300.045	35210
300.006	35220
299.996	35230
299.99	35240
299.999	35250
299.973	35260
299.904	35270
299.78	35280
300.053	35290
300.677	35300
300.951	35310
300.309	35320
299.788	35330
299.675	35340
299.893	35350
300.008	35360
300.031	35370
300.054	35380
300.044	35390
300.082	35400
300.13	35410
300.175	35420
300.182	35430
300.169	35440
300.222	35450
300.151	35460
300.166	35470
300.16	35480
300.073	35490
300.064	35500
300.007	35510
300.01	35520
299.996	35530
300.035	35540
300.013	35550
299.995	35560
299.997	35570
299.983	35580
299.96	35590
300.014	35600
299.974	35610
300.008	35620
299.998	35630
299.987	35640
300.005	35650
299.967	35660
299.997	35670
299.995	35680
300.007	35690
299.977	35700
300.024	35710
299.979	35720
299.989	35730
299.979	35740
299.976	35750
299.993	35760
299.994	35770
299.951	35780
299.99	35790
299.979	35800
299.993	35810
299.959	35820
300.006	35830
299.956	35840
299.987	35850
299.969	35860
299.974	35870
300.004	35880
299.969	35890
300.01	35900
299.997	35910
300.011	35920
299.971	35930
299.991	35940
299.991	35950
300.004	35960
300.009	35970
300.005	35980
300.006	35990
299.994	36000
299.985	36010
300.009	36020
299.992	36030
300.012	36040
300.04	36050
300.079	36060
300.09	36070
300.137	36080
300.104	36090
300.135	36100
300.131	36110
300.081	36120
300.061	36130
300.043	36140
300.0	36150
299.997	36160
299.986	36170
300.002	36180
299.96	36190
299.744	36200
299.927	36210
300.479	36220
300.993	36230
300.561	36240
299.884	36250
299.641	36260
299.804	36270
299.999	36280
300.007	36290
300.017	36300
300.009	36310
300.099	36320
300.114	36330
300.141	36340
300.154	36350
300.168	36360
300.175	36370
300.173	36380
300.15	36390
300.145	36400
300.069	36410
300.018	36420
300.059	36430
300.028	36440
299.983	36450
299.985	36460
300.019	36470
299.99	36480
299.993	36490
300.008	36500
300.024	36510
299.988	36520
299.972	36530
299.98	36540
299.98	36550
299.941	36560
299.977	36570
299.992	36580
299.959	36590
299.99	36600
299.989	36610
299.97	36620
299.969	36630
299.986	36640
299.993	36650
299.982	36660
299.974	36670
299.984	36680
299.991	36690
299.978	36700
300.015	36710
300.004	36720
299.971	36730
299.959	36740
299.946	36750
299.983	36760
299.96	36770
299.985	36780
299.997	36790
299.954	36800
299.928	36810
300.001	36820
299.965	36830
299.968	36840
299.983	36850
299.981	36860
299.966	36870
299.936	36880
300.003	36890
299.97	36900
299.99	36910
299.998	36920
299.977	36930
299.967	36940
300.014	36950
300.007	36960
300.034	36970
300.021	36980
300.09	36990
300.11	37000
300.105	37010
300.138	37020
300.13	37030
300.075	37040
300.03	37050
300.036	37060
300.009	37070
299.99	37080
300.024	37090
299.995	37100
299.963	37110
299.792	37120
299.788	37130
300.256	37140
300.907	37150
300.779	37160
300.018	37170
299.69	37180
299.759	37190
299.94	37200
299.99	37210
299.999	37220
300.027	37230
300.082	37240
300.052	37250
300.118	37260
300.14	37270
300.185	37280
300.196	37290
300.231	37300
300.155	37310
300.146	37320
300.069	37330
300.081	37340
300.041	37350
300.02	37360
300.019	37370
299.978	37380
300.004	37390
299.954	37400
300.005	37410
299.99	37420
299.958	37430
299.989	37440
300.003	37450
300.002	37460
299.967	37470
299.957	37480
299.967	37490
299.967	37500
299.95	37510
299.986	37520
299.969	37530
299.981	37540
299.989	37550
299.976	37560
300.005	37570
299.998	37580
299.974	37590
299.975	37600
299.957	37610
299.988	37620
300.028	37630
299.967	37640
299.963	37650
299.965	37660
299.978	37670
299.974	37680
299.985	37690
300.001	37700
300.017	37710
299.979	37720
299.985	37730
300.0	37740
300.003	37750
299.957	37760
299.96	37770
299.979	37780
299.976	37790
299.975	37800
299.969	37810
299.996	37820
299.973	37830
299.98	37840
299.956	37850
299.97	37860
299.991	37870
300.001	37880
300.026	37890
300.028	37900
300.062	37910
300.098	37920
300.138	37930
300.158	37940
300.106	37950
300.101	37960
300.034	37970
300.053	37980
300.007	37990
299.998	38000
300.013	38010
299.956	38020
299.982	38030
299.852	38040
299.749	38050
300.121	38060
300.733	38070
300.939	38080
300.244	38090
299.703	38100
299.729	38110
299.904	38120
299.99	38130
299.986	38140
300.023	38150
300.039	38160
300.095	38170
300.082	38180
300.142	38190
300.179	38200
300.183	38210
300.178	38220
300.158	38230
300.17	38240
300.086	38250
300.051	38260
300.017	38270
300.045	38280
300.019	38290
299.998	38300
300.027	38310
299.971	38320
300.011	38330
299.978	38340
299.972	38350
299.977	38360
300.0	38370
299.997	38380
299.998	38390
299.975	38400
299.977	38410
299.987	38420
299.976	38430
299.993	38440
299.989	38450
299.957	38460
300.009	38470
299.999	38480
299.979	38490
299.986	38500
299.968	38510
299.964	38520
300.006	38530
299.96	38540
299.947	38550
300.009	38560
299.991	38570
299.939	38580
299.961	38590
300.01	38600
299.992	38610
299.966	38620
299.985	38630
300.006	38640
299.968	38650
299.991	38660
299.967	38670
299.98	38680
299.99	38690
299.983	38700
299.99	38710
300.001	38720
299.985	38730
299.988	38740
299.986	38750
300.005	38760
299.934	38770
300.029	38780
299.958	38790
300.012	38800
299.978	38810
300.053	38820
300.069	38830
300.073	38840
300.124	38850
300.169	38860
300.12	38870
300.141	38880
300.087	38890
300.053	38900
300.014	38910
299.997	38920
300.027	38930
299.972	38940
299.986	38950
299.894	38960
299.767	38970
299.992	38980
300.508	38990
300.976	39000
300.474	39010
299.828	39020
299.669	39030
299.854	39040
300.017	39050
300.001	39060
300.017	39070
300.033	39080
300.073	39090
300.118	39100
300.108	39110
300.15	39120
300.202	39130
300.187	39140
300.185	39150
300.139	39160
300.145	39170
300.096	39180
300.047	39190
300.035	39200
300.021	39210
300.002	39220
300.023	39230
300.026	39240
300.0	39250
299.991	39260
300.022	39270
299.992	39280
299.998	39290
300.003	39300
299.99	39310
300.019	39320
299.99	39330
299.965	39340
300.011	39350
300.01	39360
299.996	39370
300.001	39380
299.993	39390
299.993	39400
299.982	39410
299.98	39420
299.991	39430
300.003	39440
299.967	39450
299.987	39460
299.968	39470
299.991	39480
299.98	39490
300.008	39500
299.983	39510
300.012	39520
300.015	39530
299.973	39540
299.994	39550
300.003	39560
300.035	39570
300.011	39580
300.009	39590
300.029	39600
299.989	39610
300.031	39620
300.012	39630
299.979	39640
300.009	39650
300.012	39660
300.018	39670
300.017	39680
299.986	39690
300.008	39700
300.008	39710
300.026	39720
300.031	39730
300.044	39740
300.094	39750
300.098	39760
300.109	39770
300.158	39780
300.124	39790
300.128	39800
300.067	39810
300.053	39820
300.036	39830
299.983	39840
300.021	39850
299.99	39860
299.977	39870
299.958	39880
299.803	39890
299.814	39900
300.312	39910
300.939	39920
300.742	39930
300.029	39940
299.679	39950
299.81	39960
299.952	39970
300.037	39980
300.037	39990
300.056	40000
300.064	40010
300.121	40020
300.138	40030
300.209	40040
300.216	40050
300.193	40060
300.193	40070
300.172	40080
300.167	40090
300.081	40100
300.102	40110
300.067	40120
300.006	40130
300.036	40140
300.028	40150
300.013	40160
299.994	40170
300.004	40180
300.022	40190
299.968	40200
299.993	40210
299.974	40220
299.999	40230
299.988	40240
300.029	40250
300.021	40260
300.0	40270
300.007	40280
300.03	40290
299.996	40300
300.024	40310
300.01	40320
299.991	40330
300.009	40340
300.0	40350
299.978	40360
300.018	40370
299.998	40380
300.0	40390
299.998	40400
300.022	40410
300.012	40420
299.991	40430
300.032	40440
300.009	40450
300.004	40460
300.007	40470
299.976	40480
299.974	40490
300.006	40500
299.995	40510
300.009	40520
300.013	40530
300.002	40540
299.983	40550
299.993	40560
300.006	40570
299.99	40580
299.996	40590
300.014	40600
300.029	40610
299.98	40620
299.989	40630
299.996	40640
300.035	40650
300.02	40660
300.059	40670
300.053	40680
300.139	40690
300.141	40700
300.129	40710
300.127	40720
300.116	40730
300.088	40740
300.058	40750
300.014	40760
300.013	40770
300.013	40780
300.033	40790
299.99	40800
299.859	40810
299.798	40820
300.161	40830
300.8	40840
300.97	40850
300.212	40860
299.723	40870
299.729	40880
299.944	40890
300.027	40900
300.065	40910
300.059	40920
300.062	40930
300.132	40940
300.143	40950
300.156	40960
300.194	40970
300.228	40980
300.205	40990
300.178	41000
300.173	41010
300.156	41020
300.109	41030
300.064	41040
300.031	41050
300.037	41060
300.014	41070
300.028	41080
300.021	41090
300.013	41100
300.013	41110
300.031	41120
300.009	41130
300.029	41140
300.016	41150
300.011	41160
300.038	41170
299.994	41180
299.995	41190
299.987	41200
300.009	41210
300.013	41220
300.006	41230
300.009	41240
300.022	41250
300.039	41260
300.022	41270
299.987	41280
300.025	41290
300.041	41300
299.986	41310
300.036	41320
300.041	41330
300.049	41340
300.032	41350
300.006	41360
299.988	41370
300.017	41380
299.994	41390
300.038	41400
299.985	41410
299.972	41420
300.027	41430
300.031	41440
300.034	41450
300.002	41460
300.013	41470
299.986	41480
299.993	41490
300.035	41500
300.027	41510
300.009	41520
300.014	41530
300.042	41540
299.997	41550
300.04	41560
300.021	41570
300.04	41580
300.054	41590
300.076	41600
300.143	41610
300.111	41620
300.17	41630
300.153	41640
300.135	41650
300.116	41660
300.072	41670
300.054	41680
300.047	41690
300.0	41700
300.008	41710
300.015	41720
299.915	41730
299.764	41740
300.002	41750
300.615	41760
301.024	41770
300.445	41780
299.787	41790
299.694	41800
299.884	41810
300.016	41820
300.022	41830
300.07	41840
300.074	41850
300.102	41860
300.14	41870
300.177	41880
300.203	41890
300.249	41900
300.229	41910
300.199	41920
300.196	41930
300.107	41940
300.136	41950
300.138	41960
300.069	41970
300.025	41980
300.028	41990
300.073	42000
300.03	42010
300.025	42020
300.036	42030
300.005	42040
300.019	42050
300.022	42060
300.037	42070
300.018	42080
300.032	42090
300.054	42100
300.052	42110
300.052	42120
300.044	42130
300.002	42140
300.041	42150
300.05	42160
300.019	42170
299.997	42180
300.03	42190
300.007	42200
300.034	42210
300.024	42220
299.986	42230
300.04	42240
300.043	42250
300.002	42260
300.021	42270
299.995	42280
300.003	42290
300.01	42300
300.032	42310
299.986	42320
299.998	42330
300.029	42340
300.024	42350
300.042	42360
300.05	42370
300.017	42380
299.994	42390
300.054	42400
300.029	42410
300.001	42420
300.036	42430
300.03	42440
300.001	42450
300.036	42460
300.012	42470
300.015	42480
300.022	42490
300.054	42500
300.057	42510
300.07	42520
300.134	42530
300.166	42540
300.168	42550
300.172	42560
300.144	42570
300.095	42580
300.092	42590
300.053	42600
300.016	42610
300.002	42620
300.031	42630
300.024	42640
299.982	42650
299.851	42660
299.859	42670
300.393	42680
300.95	42690
300.685	42700
299.996	42710
299.654	42720
299.829	42730
300.036	42740
300.048	42750
300.049	42760
300.079	42770
300.115	42780
300.129	42790
300.161	42800
300.191	42810
300.227	42820
300.2	42830
300.215	42840
300.193	42850
300.18	42860
300.155	42870
300.089	42880
300.085	42890
300.03	42900
300.012	42910
300.028	42920
300.035	42930
300.047	42940
300.038	42950
300.0	42960
300.0	42970
300.01	42980
300.005	42990
300.037	43000
300.03	43010
299.998	43020
300.037	43030
300.009	43040
300.023	43050
300.0	43060
299.987	43070
300.021	43080
300.019	43090
300.013	43100
300.037	43110
300.036	43120
300.015	43130
300.019	43140
300.018	43150
300.008	43160
300.045	43170
300.023	43180
300.044	43190
300.025	43200
300.028	43210
299.99	43220
300.005	43230
300.083	43240
300.013	43250
300.023	43260
299.993	43270
300.038	43280
300.024	43290
300.003	43300
299.999	43310
299.999	43320
299.995	43330
300.026	43340
300.013	43350
299.983	43360
300.025	43370
300.034	43380
299.982	43390
300.01	43400
300.014	43410
300.077	43420
300.052	43430
300.071	43440
300.089	43450
300.144	43460
300.142	43470
300.178	43480
300.137	43490
300.117	43500
300.077	43510
300.064	43520
300.058	43530
300.057	43540
300.011	43550
300.035	43560
299.979	43570
299.888	43580
299.769	43590
300.192	43600
300.828	43610
300.862	43620
300.171	43630
299.727	43640
299.783	43650
299.999	43660
300.01	43670
300.051	43680
300.075	43690
300.085	43700
300.136	43710
300.158	43720
300.218	43730
300.206	43740
300.246	43750
300.21	43760
300.204	43770
300.172	43780
300.121	43790
300.109	43800
300.074	43810
300.057	43820
300.055	43830
300.033	43840
300.003	43850
300.01	43860
300.032	43870
300.022	43880
299.981	43890
300.009	43900
299.99	43910
300.009	43920
300.027	43930
299.987	43940
300.007	43950
300.017	43960
300.033	43970
300.001	43980
300.032	43990
299.987	44000
300.001	44010
299.997	44020
300.011	44030
299.998	44040
300.005	44050
299.98	44060
300.014	44070
300.007	44080
300.038	44090
300.033	44100
299.979	44110
300.0	44120
300.029	44130
299.993	44140
300.014	44150
300.006	44160
299.97	44170
300.005	44180
300.039	44190
299.994	44200
299.981	44210
300.031	44220
300.003	44230
300.037	44240
300.02	44250
300.02	44260
299.997	44270
299.993	44280
299.988	44290
299.972	44300
300.012	44310
300.031	44320
300.032	44330
300.0	44340
300.031	44350
300.038	44360
300.106	44370
300.104	44380
300.142	44390
300.154	44400
300.141	44410
300.14	44420
300.115	44430
300.026	44440
300.041	44450
300.009	44460
300.003	44470
299.997	44480
299.977	44490
299.923	44500
299.765	44510
300.036	44520
300.659	44530
300.974	44540
300.396	44550
299.805	44560
299.698	44570
299.902	44580
299.965	44590
300.0	44600
300.05	44610
300.083	44620
300.094	44630
300.095	44640
300.196	44650
300.171	44660
300.185	44670
300.207	44680
300.224	44690
300.145	44700
300.128	44710
300.105	44720
300.055	44730
300.06	44740
300.043	44750
300.022	44760
299.992	44770
300.001	44780
299.974	44790
300.026	44800
299.989	44810
300.011	44820
299.976	44830
300.0	44840
299.995	44850
299.973	44860
300.006	44870
300.02	44880
299.992	44890
299.993	44900
300.041	44910
300.027	44920
300.006	44930
299.957	44940
299.987	44950
300.021	44960
299.982	44970
300.001	44980
299.991	44990
300.005	45000
300.023	45010
299.998	45020
299.98	45030
299.983	45040
300.042	45050
299.971	45060
300.038	45070
300.016	45080
299.99	45090
299.994	45100
300.0	45110
299.997	45120
299.992	45130
300.024	45140
300.034	45150
299.986	45160
300.017	45170
299.996	45180
300.013	45190
300.004	45200
299.996	45210
299.997	45220
300.012	45230
300.025	45240
299.989	45250
300.012	45260
300.035	45270
300.027	45280
300.06	45290
300.126	45300
300.115	45310
300.149	45320
300.172	45330
300.121	45340
300.102	45350
300.041	45360
300.026	45370
300.018	45380
300.046	45390
300.012	45400
300.016	45410
299.917	45420
299.792	45430
299.891	45440
300.4	45450
301.014	45460
300.614	45470
299.91	45480
299.653	45490
299.814	45500
299.955	45510
300.03	45520
300.004	45530
300.074	45540
300.091	45550
300.14	45560
300.125	45570
300.196	45580
300.222	45590
300.194	45600
300.191	45610
300.184	45620
300.12	45630
300.129	45640
300.072	45650
299.998	45660
300.014	45670
299.978	45680
299.998	45690
300.014	45700
299.958	45710
300.0	45720
299.979	45730
300.002	45740
300.013	45750
300.026	45760
299.989	45770
300.01	45780
300.011	45790
299.997	45800
300.003	45810
299.965	45820
300.011	45830
299.969	45840
299.974	45850
299.982	45860
299.987	45870
299.999	45880
300.011	45890
299.987	45900
300.006	45910
300.002	45920
300.001	45930
299.993	45940
299.999	45950
299.982	45960
299.976	45970
299.996	45980
299.966	45990
300.028	46000
299.943	46010
299.987	46020
299.963	46030
299.978	46040
299.964	46050
300.024	46060
300.019	46070
299.982	46080
299.998	46090
300.006	46100
299.985	46110
299.986	46120
299.991	46130
299.996	46140
299.994	46150
299.998	46160
299.982	46170
299.984	46180
300.002	46190
300.039	46200
300.033	46210
300.095	46220
300.109	46230
300.106	46240
300.097	46250
300.157	46260
300.09	46270
300.078	46280
300.0	46290
299.981	46300
299.975	46310
299.994	46320
300.001	46330
299.99	46340
299.816	46350
299.778	46360
300.194	46370
300.88	46380
300.783	46390
300.077	46400
299.659	46410
299.746	46420
299.927	46430
300.015	46440
300.018	46450
300.063	46460
300.027	46470
300.065	46480
300.114	46490
300.131	46500
300.183	46510
300.216	46520
300.213	46530
300.155	46540
300.136	46550
300.063	46560
300.08	46570
300.076	46580
299.995	46590
300.024	46600
300.015	46610
299.984	46620
299.96	46630
300.008	46640
299.999	46650
300.02	46660
299.97	46670
299.99	46680
299.99	46690
300.015	46700
300.039	46710
299.989	46720
299.977	46730
300.007	46740
299.996	46750
299.969	46760
299.977	46770
300.011	46780
299.982	46790
299.988	46800
299.966	46810
299.995	46820
299.956	46830
300.018	46840
299.986	46850
300.003	46860
299.997	46870
300.002	46880
299.984	46890
299.99	46900
299.983	46910
299.966	46920
299.965	46930
299.999	46940
299.992	46950
299.98	46960
299.996	46970
299.981	46980
299.968	46990
299.982	47000
299.988	47010
299.978	47020
299.985	47030
299.997	47040
299.992	47050
299.957	47060
299.966	47070
299.989	47080
299.972	47090
299.979	47100
299.986	47110
299.988	47120
300.033	47130
300.051	47140
300.095	47150
300.158	47160
300.141	47170
300.116	47180
300.108	47190
300.046	47200
300.048	47210
299.999	47220
299.984	47230
299.978	47240
299.988	47250
299.982	47260
299.88	47270
299.75	47280
300.052	47290
300.687	47300
300.925	47310
300.297	47320
299.715	47330
299.671	47340
299.869	47350
300.011	47360
300.042	47370
300.0	47380
300.034	47390
300.104	47400
300.09	47410
300.135	47420
300.162	47430
300.19	47440
300.183	47450
300.157	47460
300.133	47470
300.08	47480
300.078	47490
300.064	47500
300.014	47510
299.984	47520
299.998	47530
299.984	47540
300.003	47550
299.978	47560
299.949	47570
299.962	47580
299.988	47590
299.977	47600
299.982	47610
299.948	47620
300.023	47630
299.99	47640
299.985	47650
299.984	47660
299.994	47670
299.97	47680
299.981	47690
299.944	47700
300.012	47710
299.958	47720
299.991	47730
299.992	47740
300.017	47750
299.966	47760
299.959	47770
299.986	47780
299.978	47790
299.97	47800
299.98	47810
299.959	47820
299.962	47830
300.002	47840
299.971	47850
299.986	47860
299.966	47870
299.956	47880
299.951	47890
299.947	47900
299.986	47910
299.985	47920
299.991	47930
299.992	47940
300.002	47950
299.992	47960
299.964	47970
300.014	47980
300.002	47990
299.969	48000
299.971	48010
299.982	48020
300.015	48030
300.019	48040
300.058	48050
300.025	48060
300.093	48070
300.134	48080
300.128	48090
300.152	48100
300.087	48110
300.119	48120
300.029	48130
300.009	48140
300.006	48150
299.982	48160
299.986	48170
299.941	48180
299.937	48190
299.751	48200
299.911	48210
300.479	48220
300.985	48230
300.54	48240
299.862	48250
299.658	48260
299.83	48270
299.969	48280
300.012	48290
300.017	48300
300.036	48310
300.069	48320
300.094	48330
300.103	48340
300.162	48350
300.175	48360
300.168	48370
300.194	48380
300.129	48390
300.107	48400
300.099	48410
300.046	48420
300.029	48430
299.981	48440
300.012	48450
299.978	48460
299.999	48470
299.964	48480
299.959	48490
299.974	48500
299.976	48510
299.967	48520
299.975	48530
299.982	48540
299.984	48550
299.983	48560
299.965	48570
299.978	48580
299.996	48590
299.97	48600
299.971	48610
299.981	48620
299.99	48630
299.965	48640
299.966	48650
300.036	48660
300.002	48670
299.976	48680
299.993	48690
299.982	48700
300.027	48710
299.97	48720
300.001	48730
299.989	48740
299.995	48750
300.008	48760
299.992	48770
299.987	48780
299.969	48790
299.971	48800
299.989	48810
300.003	48820
299.949	48830
300.005	48840
299.987	48850
299.997	48860
299.999	48870
299.975	48880
300.002	48890
300.009	48900
299.984	48910
300.003	48920
299.99	48930
299.983	48940
300.009	48950
300.016	48960
300.032	48970
300.086	48980
300.1	48990
300.12	49000
300.162	49010
300.158	49020
300.119	49030
300.067	49040
300.062	49050
300.033	49060
299.999	49070
300.015	49080
300.001	49090
300.01	49100
299.969	49110
299.82	49120
299.802	49130
300.297	49140
300.913	49150
300.794	49160
300.034	49170
299.657	49180
299.761	49190
299.945	49200
299.998	49210
299.993	49220
300.016	49230
300.046	49240
300.106	49250
300.106	49260
300.132	49270
300.169	49280
300.178	49290
300.187	49300
300.152	49310
300.138	49320
300.098	49330
300.065	49340
300.084	49350
300.019	49360
300.036	49370
299.997	49380
300.001	49390
300.006	49400
299.987	49410
299.965	49420
299.961	49430
299.964	49440
299.991	49450
299.982	49460
300.005	49470
299.991	49480
299.984	49490
300.011	49500
300.013	49510
299.979	49520
299.981	49530
300.016	49540
299.976	49550
299.998	49560
299.996	49570
300.012	49580
299.995	49590
299.999	49600
299.971	49610
300.014	49620
300.012	49630
299.952	49640
300.017	49650
299.971	49660
299.99	49670
299.997	49680
299.993	49690
299.987	49700
299.995	49710
299.977	49720
299.973	49730
299.976	49740
299.994	49750
300.02	49760
299.997	49770
299.984	49780
300.006	49790
300.007	49800
299.968	49810
300.012	49820
299.985	49830
299.992	49840
300.002	49850
300.0	49860
300.032	49870
300.035	49880
300.036	49890
300.046	49900
300.062	49910
300.118	49920
300.136	49930
300.14	49940
300.143	49950
300.121	49960
300.099	49970
300.042	49980
300.016	49990
300.016	50000
300.003	50010
299.992	50020
299.986	50030
299.886	50040
299.765	50050
300.072	50060
300.724	50070
300.943	50080
300.263	50090
299.744	50100
299.706	50110
299.927	50120
299.988	50130
300.041	50140
300.052	50150
300.057	50160
300.103	50170
300.11	50180
300.162	50190
300.19	50200
300.189	50210
300.217	50220
300.172	50230
300.138	50240
300.116	50250
300.135	50260
300.093	50270
300.031	50280
300.03	50290
300.031	50300
300.012	50310
299.961	50320
300.023	50330
300.01	50340
299.963	50350
300.006	50360
300.001	50370
299.985	50380
299.995	50390
299.999	50400
299.989	50410
300.009	50420
300.018	50430
299.971	50440
300.008	50450
300.026	50460
300.009	50470
300.016	50480
299.989	50490
300.025	50500
300.025	50510
299.98	50520
300.018	50530
300.003	50540
299.997	50550
300.001	50560
300.04	50570
299.989	50580
300.023	50590
299.992	50600
300.002	50610
299.99	50620
299.986	50630
300.006	50640
299.994	50650
300.035	50660
300.012	50670
300.005	50680
300.026	50690
300.011	50700
299.98	50710
300.029	50720
300.016	50730
300.002	50740
300.013	50750
300.0	50760
299.993	50770
300.05	50780
299.969	50790
300.041	50800
300.064	50810
300.08	50820
300.116	50830
300.106	50840
300.12	50850
300.155	50860
300.156	50870
300.145	50880
300.113	50890
300.046	50900
300.047	50910
300.053	50920
300.0	50930
300.015	50940
300.017	50950
299.951	50960
299.802	50970
299.974	50980
300.527	50990
300.995	51000
300.476	51010
299.868	51020
299.671	51030
299.845	51040
300.01	51050
300.038	51060
300.054	51070
300.052	51080
300.117	51090
300.131	51100
300.153	51110
300.173	51120
300.235	51130
300.182	51140
300.236	51150
300.17	51160
300.146	51170
300.119	51180
300.094	51190
300.079	51200
300.058	51210
300.014	51220
300.017	51230
300.038	51240
300.026	51250
300.039	51260
299.997	51270
300.012	51280
300.048	51290
299.976	51300
300.013	51310
300.007	51320
300.019	51330
300.03	51340
300.048	51350
300.025	51360
300.012	51370
300.022	51380
300.02	51390
300.023	51400
299.993	51410
299.998	51420
299.989	51430
300.023	51440
300.016	51450
300.021	51460
300.036	51470
300.038	51480
300.024	51490
300.021	51500
299.99	51510
300.017	51520
300.021	51530
300.051	51540
300.03	51550
300.006	51560
299.993	51570
300.027	51580
300.024	51590
300.017	51600
300.005	51610
300.038	51620
300.046	51630
300.01	51640
299.996	51650
299.983	51660
300.002	51670
299.982	51680
299.997	51690
299.992	51700
300.018	51710
300.053	51720
300.043	51730
300.067	51740
300.081	51750
300.124	51760
300.147	51770
300.18	51780
300.169	51790
300.137	51800
300.09	51810
300.086	51820
300.072	51830
300.044	51840
300.0	51850
300.025	51860
300.043	51870
299.987	51880
299.826	51890
299.837	51900
300.344	51910
300.954	51920
300.752	51930
300.005	51940
299.667	51950
299.789	51960
300.01	51970
300.024	51980
300.045	51990
300.066	52000
300.096	52010
300.143	52020
300.17	52030
300.201	52040
300.216	52050
300.212	52060
300.261	52070
300.2	52080
300.167	52090
300.15	52100
300.106	52110
300.058	52120
300.057	52130
300.028	52140
300.016	52150
300.008	52160
300.033	52170
300.033	52180
300.04	52190
300.013	52200
300.041	52210
300.02	52220
300.013	52230
300.005	52240
299.991	52250
300.016	52260
300.004	52270
299.996	52280
300.017	52290
300.012	52300
300.065	52310
300.0	52320
300.016	52330
300.023	52340
299.995	52350
300.004	52360
300.018	52370
300.025	52380
299.987	52390
300.047	52400
300.042	52410
300.006	52420
300.055	52430
300.041	52440
300.025	52450
300.041	52460
300.0	52470
300.043	52480
300.011	52490
300.004	52500
300.031	52510
300.022	52520
300.009	52530
300.038	52540
299.994	52550
300.04	52560
300.026	52570
300.004	52580
300.035	52590
300.031	52600
300.035	52610
300.013	52620
300.063	52630
300.067	52640
300.037	52650
300.052	52660
300.068	52670
300.103	52680
300.132	52690
300.179	52700
300.174	52710
300.152	52720
300.121	52730
300.102	52740
300.077	52750
300.018	52760
299.996	52770
300.029	52780
300.032	52790
300.004	52800
299.899	52810
299.795	52820
300.17	52830
300.82	52840
300.955	52850
300.264	52860
299.712	52870
299.737	52880
299.931	52890
300.021	52900
300.08	52910
300.039	52920
300.066	52930
300.123	52940
300.134	52950
300.203	52960
300.204	52970
300.217	52980
300.26	52990
300.168	53000
300.185	53010
300.151	53020
300.141	53030
300.079	53040
300.06	53050
300.023	53060
300.038	53070
300.023	53080
299.994	53090
300.02	53100
300.021	53110
300.028	53120
300.019	53130
300.028	53140
300.032	53150
300.039	53160
300.016	53170
299.983	53180
300.022	53190
300.019	53200
300.008	53210
300.028	53220
299.986	53230
300.039	53240
300.029	53250
300.006	53260
300.003	53270
300.034	53280
300.001	53290
300.0	53300
299.985	53310
300.049	53320
300.004	53330
300.005	53340
299.997	53350
300.017	53360
300.001	53370
300.026	53380
300.039	53390
300.036	53400
300.004	53410
300.039	53420
300.048	53430
299.985	53440
300.021	53450
300.021	53460
300.012	53470
300.031	53480
299.982	53490
300.041	53500
299.988	53510
300.008	53520
299.991	53530
300.027	53540
300.015	53550
300.039	53560
300.014	53570
300.067	53580
300.073	53590
300.072	53600
300.126	53610
300.117	53620
300.148	53630
300.152	53640
300.113	53650
300.082	53660
300.045	53670
300.047	53680
300.033	53690
300.035	53700
300.027	53710
299.996	53720
299.964	53730
299.769	53740
300.007	53750
300.608	53760
300.995	53770
300.457	53780
299.831	53790
299.7	53800
299.891	53810
300.032	53820
300.03	53830
300.072	53840
300.05	53850
300.094	53860
300.125	53870
300.173	53880
300.236	53890
300.217	53900
300.246	53910
300.17	53920
300.171	53930
300.131	53940
300.079	53950
300.113	53960
300.03	53970
300.05	53980
300.042	53990
300.006	54000
300.016	54010
300.009	54020
300.005	54030
300.009	54040
300.009	54050
300.016	54060
300.006	54070
300.001	54080
299.965	54090
300.011	54100
299.996	54110
300.0	54120
299.986	54130
299.982	54140
300.003	54150
300.006	54160
300.022	54170
300.0	54180
300.004	54190
300.001	54200
299.991	54210
300.011	54220
299.974	54230
300.017	54240
299.966	54250
300.025	54260
300.022	54270
299.956	54280
300.014	54290
300.002	54300
299.983	54310
300.003	54320
300.019	54330
300.022	54340
299.991	54350
300.004	54360
299.999	54370
300.01	54380
299.993	54390
300.027	54400
299.993	54410
300.014	54420
300.0	54430
300.003	54440
300.009	54450
300.015	54460
299.99	54470
299.992	54480
299.995	54490
300.002	54500
300.026	54510
300.062	54520
300.141	54530
300.12	54540
300.181	54550
300.14	54560
300.116	54570
300.103	54580
300.06	54590
300.056	54600
300.018	54610
300.021	54620
300.017	54630
299.98	54640
299.952	54650
299.82	54660
299.856	54670
300.384	54680
300.991	54690
300.663	54700
299.969	54710
299.672	54720
299.791	54730
299.968	54740
300.013	54750
300.04	54760
300.04	54770
300.093	54780
300.106	54790
300.129	54800
300.169	54810
300.184	54820
300.209	54830
300.171	54840
300.193	54850
300.123	54860
300.131	54870
300.071	54880
300.087	54890
300.043	54900
300.016	54910
300.05	54920
299.999	54930
300.005	54940
299.977	54950
300.016	54960
299.992	54970
300.0	54980
299.974	54990
299.987	55000
300.011	55010
300.004	55020
300.017	55030
300.014	55040
300.011	55050
300.015	55060
299.963	55070
300.011	55080
300.001	55090
299.978	55100
299.986	55110
300.001	55120
300.014	55130
299.983	55140
300.005	55150
300.024	55160
300.02	55170
299.984	55180
299.969	55190
300.025	55200
299.976	55210
299.976	55220
300.023	55230
299.996	55240
299.984	55250
300.014	55260
300.008	55270
299.994	55280
300.007	55290
299.984	55300
299.973	55310
299.988	55320
300.023	55330
299.994	55340
299.989	55350
299.994	55360
299.992	55370
300.004	55380
299.993	55390
299.994	55400
299.982	55410
300.012	55420
300.06	55430
300.043	55440
300.078	55450
300.124	55460
300.14	55470
300.111	55480
300.107	55490
300.131	55500
300.077	55510
300.014	55520
300.047	55530
300.018	55540
299.989	55550
299.972	55560
300.004	55570
299.9	55580
299.8	55590
300.191	55600
300.797	55610
300.83	55620
300.177	55630
299.67	55640
299.726	55650
299.944	55660
300.029	55670
300.018	55680
300.045	55690
300.071	55700
300.099	55710
300.102	55720
300.161	55730
300.175	55740
300.204	55750
300.156	55760
300.174	55770
300.148	55780
300.13	55790
300.096	55800
300.04	55810
300.02	55820
300.011	55830
300.055	55840
299.988	55850
300.011	55860
299.996	55870
299.972	55880
300.004	55890
299.984	55900
299.987	55910
299.999	55920
299.985	55930
299.966	55940
299.97	55950
299.966	55960
300.029	55970
299.998	55980
299.99	55990
300.02	56000
300.013	56010
299.965	56020
300.009	56030
299.978	56040
299.985	56050
300.014	56060
299.983	56070
300.001	56080
299.972	56090
300.019	56100
299.989	56110
300.017	56120
299.98	56130
299.965	56140
299.974	56150
299.983	56160
300.009	56170
300.01	56180
299.992	56190
299.986	56200
299.995	56210
299.982	56220
299.971	56230
300.011	56240
299.975	56250
299.976	56260
299.977	56270
299.999	56280
299.982	56290
299.958	56300
299.948	56310
299.965	56320
299.985	56330
300.016	56340
300.03	56350
300.022	56360
300.042	56370
300.082	56380
300.097	56390
300.105	56400
300.161	56410
300.094	56420
300.061	56430
300.032	56440
300.02	56450
300.019	56460
299.976	56470
299.983	56480
299.992	56490
299.885	56500
299.707	56510
299.979	56520
300.657	56530
300.97	56540
300.404	56550
299.748	56560
299.651	56570
299.856	56580
299.966	56590
300.026	56600
300.016	56610
300.053	56620
300.103	56630
300.094	56640
300.138	56650
300.177	56660
300.189	56670
300.168	56680
300.146	56690
300.142	56700
300.118	56710
300.058	56720
300.043	56730
300.013	56740
300.009	56750
299.989	56760
299.981	56770
299.972	56780
299.988	56790
299.985	56800
299.964	56810
300.019	56820
300.01	56830
299.982	56840
299.956	56850
299.945	56860
299.97	56870
299.966	56880
300.0	56890
299.981	56900
299.984	56910
299.973	56920
299.98	56930
299.966	56940
300.01	56950
299.975	56960
299.964	56970
300.014	56980
299.96	56990
299.972	57000
299.988	57010
299.987	57020
300.035	57030
299.995	57040
299.975	57050
299.993	57060
299.974	57070
299.982	57080
299.975	57090
299.974	57100
299.953	57110
299.985	57120
299.958	57130
299.983	57140
299.984	57150
299.971	57160
299.976	57170
299.988	57180
299.98	57190
299.983	57200
299.982	57210
299.975	57220
299.974	57230
299.984	57240
299.994	57250
300.004	57260
299.985	57270
300.036	57280
300.062	57290
300.077	57300
300.147	57310
300.143	57320
300.132	57330
300.081	57340
300.088	57350
300.021	57360
300.012	57370
299.956	57380
299.957	57390
299.965	57400
299.964	57410
299.963	57420
299.793	57430
299.9	57440
300.426	57450
300.968	57460
300.596	57470
299.871	57480
299.657	57490
299.791	57500
299.973	57510
299.972	57520
300.006	57530
300.063	57540
300.055	57550
300.089	57560
300.117	57570
300.092	57580
300.159	57590
300.16	57600
300.156	57610
300.117	57620
300.124	57630
300.065	57640
300.07	57650
300.056	57660
299.991	57670
299.994	57680
299.965	57690
299.982	57700
299.983	57710
299.989	57720
299.996	57730
299.988	57740
299.939	57750
299.95	57760
299.958	57770
299.979	57780
299.971	57790
299.983	57800
299.96	57810
299.963	57820
299.996	57830
299.964	57840
299.998	57850
299.945	57860
299.989	57870
299.984	57880
299.982	57890
299.969	57900
299.997	57910
299.971	57920
299.991	57930
299.995	57940
299.953	57950
299.957	57960
299.996	57970
299.956	57980
299.993	57990
299.992	58000
299.996	58010
299.965	58020
299.965	58030
299.988	58040
299.978	58050
300.003	58060
299.961	58070
299.998	58080
299.962	58090
299.986	58100
300.022	58110
299.964	58120
299.975	58130
299.986	58140
299.994	58150
299.987	58160
299.977	58170
299.992	58180
299.994	58190
300.006	58200
300.028	58210
300.054	58220
300.111	58230
300.101	58240
300.124	58250
300.137	58260
300.095	58270
300.081	58280
300.055	58290
300.009	58300
300.013	58310
299.985	58320
300.007	58330
299.947	58340
299.851	58350
299.793	58360
300.209	58370
300.867	58380
300.803	58390
300.071	58400
299.66	58410
299.765	58420
299.957	58430
300.012	58440
300.025	58450
300.015	58460
300.071	58470
300.09	58480
300.111	58490
300.153	58500
300.19	58510
300.173	58520
300.176	58530
300.148	58540
300.149	58550
300.09	58560
300.087	58570
300.04	58580
300.041	58590
300.012	58600
300.019	58610
300.008	58620
299.986	58630
299.994	58640
299.959	58650
299.995	58660
299.996	58670
299.987	58680
300.006	58690
299.972	58700
299.955	58710
300.004	58720
299.975	58730
299.988	58740
299.992	58750
299.988	58760
299.976	58770
299.988	58780
299.992	58790
300.009	58800
299.973	58810
299.963	58820
299.951	58830
299.995	58840
299.992	58850
299.957	58860
299.963	58870
300.006	58880
299.994	58890
300.0	58900
300.018	58910
299.994	58920
299.981	58930
299.991	58940
299.947	58950
299.953	58960
300.001	58970
300.001	58980
299.957	58990
299.992	59000
299.995	59010
299.993	59020
299.966	59030
299.947	59040
299.992	59050
299.961	59060
299.985	59070
300.003	59080
299.977	59090
299.982	59100
300.008	59110
299.982	59120
300.026	59130
300.12	59140
300.081	59150
300.126	59160
300.155	59170
300.113	59180
300.109	59190
300.057	59200
300.05	59210
300.055	59220
299.992	59230
299.991	59240
299.991	59250
299.974	59260
299.876	59270
299.753	59280
300.026	59290
300.688	59300
300.948	59310
300.317	59320
299.723	59330
299.721	59340
299.907	59350
300.031	59360
300.021	59370
300.071	59380
300.064	59390
300.088	59400
300.092	59410
300.13	59420
300.152	59430
300.191	59440
300.186	59450
300.186	59460
300.171	59470
300.125	59480
300.101	59490
300.092	59500
300.043	59510
300.021	59520
300.04	59530
299.994	59540
300.009	59550
299.965	59560
299.995	59570
299.991	59580
299.985	59590
300.01	59600
299.956	59610
299.968	59620
300.0	59630
299.965	59640
299.963	59650
299.976	59660
299.963	59670
299.988	59680
299.984	59690
300.009	59700
300.008	59710
300.038	59720
299.989	59730
300.004	59740
300.004	59750
300.023	59760
299.986	59770
300.011	59780
300.015	59790
299.997	59800
299.986	59810
299.99	59820
300.038	59830
299.993	59840
300.045	59850
299.999	59860
300.005	59870
299.994	59880
299.986	59890
300.01	59900
299.983	59910
300.018	59920
299.999	59930
300.011	59940
299.957	59950
299.97	59960
299.993	59970
299.996	59980
299.989	59990
299.964	60000
300.014	60010
300.0	60020
300.024	60030
300.044	60040
300.052	60050
300.076	60060
300.108	60070
300.148	60080
300.153	60090
300.132	60100
300.103	60110
300.098	60120
300.066	60130
300.015	60140
300.033	60150
299.999	60160
299.973	60170
300.011	60180
299.95	60190
299.785	60200
299.932	60210
300.476	60220
301.009	60230
300.585	60240
299.896	60250
299.65	60260
299.862	60270
300.0	60280
299.994	60290
300.038	60300
300.08	60310
300.076	60320
300.088	60330
300.149	60340
300.173	60350
300.188	60360
300.225	60370
300.201	60380
300.173	60390
300.1	60400
300.128	60410
300.085	60420
300.041	60430
300.03	60440
300.019	60450
300.007	60460
300.004	60470
299.981	60480
300.003	60490
299.979	60500
300.007	60510
299.993	60520
299.997	60530
299.998	60540
300.003	60550
300.003	60560
299.971	60570
300.019	60580
300.014	60590
300.005	60600
300.015	60610
299.992	60620
299.989	60630
300.008	60640
300.004	60650
299.972	60660
300.032	60670
299.981	60680
300.002	60690
300.01	60700
299.991	60710
300.023	60720
300.011	60730
300.019	60740
300.023	60750
300.011	60760
300.029	60770
300.001	60780
300.029	60790
300.026	60800
300.027	60810
300.001	60820
300.026	60830
299.987	60840
299.988	60850
300.015	60860
300.003	60870
299.988	60880
300.009	60890
300.004	60900
299.992	60910
300.048	60920
300.031	60930
300.011	60940
300.028	60950
300.024	60960
300.065	60970
300.085	60980
300.129	60990
300.137	61000
300.156	61010
300.172	61020
300.172	61030
300.118	61040
300.044	61050
300.031	61060
300.023	61070
300.021	61080
300.029	61090
300.05	61100
299.978	61110
299.838	61120
299.824	61130
300.295	61140
300.942	61150
300.795	61160
300.095	61170
299.67	61180
299.782	61190
299.958	61200
300.054	61210
300.04	61220
300.041	61230
300.103	61240
300.123	61250
300.151	61260
300.223	61270
300.221	61280
300.242	61290
300.203	61300
300.203	61310
300.15	61320
300.129	61330
300.077	61340
300.114	61350
300.035	61360
300.054	61370
300.054	61380
300.051	61390
300.035	61400
300.059	61410
300.042	61420
300.007	61430
300.041	61440
300.012	61450
300.033	61460
300.018	61470
300.023	61480
300.022	61490
300.028	61500
299.998	61510
300.04	61520
300.024	61530
300.02	61540
300.031	61550
300.015	61560
300.034	61570
299.992	61580
300.013	61590
300.031	61600
300.03	61610
299.98	61620
300.035	61630
300.021	61640
300.015	61650
300.042	61660
300.005	61670
300.029	61680
299.997	61690
300.004	61700
300.02	61710
300.017	61720
300.011	61730
300.017	61740
300.03	61750
300.005	61760
300.036	61770
300.059	61780
300.011	61790
300.017	61800
300.006	61810
300.01	61820
300.01	61830
300.026	61840
300.041	61850
300.015	61860
300.015	61870
300.019	61880
300.056	61890
300.06	61900
300.092	61910
300.114	61920
300.152	61930
300.147	61940
300.166	61950
300.094	61960
300.112	61970
300.075	61980
300.063	61990
300.008	62000
300.014	62010
299.994	62020
300.012	62030
299.886	62040
299.782	62050
300.152	62060
300.801	62070
300.933	62080
300.307	62090
299.758	62100
299.758	62110
299.918	62120
300.027	62130
300.072	62140
300.044	62150
300.083	62160
300.144	62170
300.158	62180
300.206	62190
300.186	62200
300.231	62210
300.209	62220
300.204	62230
300.212	62240
300.176	62250
300.155	62260
300.076	62270
300.065	62280
300.056	62290
300.032	62300
300.054	62310
300.043	62320
300.007	62330
300.042	62340
300.058	62350
300.03	62360
300.034	62370
299.988	62380
300.034	62390
300.022	62400
300.028	62410
299.984	62420
300.005	62430
300.032	62440
300.023	62450
300.059	62460
299.993	62470
300.032	62480
300.025	62490
300.032	62500
300.032	62510
300.009	62520
300.006	62530
300.003	62540
300.002	62550
299.995	62560
300.024	62570
300.012	62580
300.001	62590
300.031	62600
300.042	62610
300.03	62620
300.028	62630
300.019	62640
300.024	62650
300.006	62660
300.004	62670
300.023	62680
300.018	62690
299.994	62700
300.053	62710
299.996	62720
300.035	62730
300.027	62740
300.021	62750
300.01	62760
300.033	62770
299.988	62780
300.036	62790
300.021	62800
300.014	62810
300.065	62820
300.11	62830
300.173	62840
300.129	62850
300.159	62860
300.129	62870
300.125	62880
300.084	62890
300.083	62900
300.074	62910
300.064	62920
300.023	62930
300.051	62940
300.029	62950
299.98	62960
299.789	62970
299.933	62980
300.56	62990
300.99	63000
300.518	63010
299.901	63020
299.689	63030
299.869	63040
299.986	63050
300.056	63060
300.045	63070
300.077	63080
300.051	63090
300.121	63100
300.166	63110
300.157	63120
300.188	63130
300.237	63140
300.238	63150
300.164	63160
300.171	63170
300.116	63180
300.08	63190
300.065	63200
300.013	63210
300.029	63220
299.993	63230
300.014	63240
300.031	63250
299.995	63260
299.998	63270
300.048	63280
299.998	63290
300.026	63300
300.021	63310
300.013	63320
299.982	63330
299.994	63340
300.025	63350
300.03	63360
300.021	63370
300.031	63380
300.014	63390
300.003	63400
300.019	63410
299.986	63420
300.011	63430
299.996	63440
300.012	63450
300.002	63460
299.992	63470
300.032	63480
299.998	63490
300.005	63500
300.02	63510
300.021	63520
300.032	63530
299.984	63540
300.018	63550
300.034	63560
299.996	63570
300.03	63580
300.023	63590
300.012	63600
299.977	63610
300.003	63620
300.021	63630
299.995	63640
300.051	63650
300.042	63660
300.015	63670
300.023	63680
300.04	63690
299.989	63700
300.003	63710
300.035	63720
300.057	63730
300.051	63740
300.106	63750
300.12	63760
300.134	63770
300.159	63780
300.172	63790
300.117	63800
300.109	63810
300.093	63820
300.063	63830
300.043	63840
300.011	63850
300.01	63860
299.977	63870
299.969	63880
299.838	63890
299.826	63900
300.336	63910
300.94	63920
300.73	63930
299.976	63940
299.663	63950
299.846	63960
300.014	63970
300.022	63980
300.073	63990
300.075	64000
300.063	64010
300.095	64020
300.144	64030
300.167	64040
300.196	64050
300.202	64060
300.193	64070
300.209	64080
300.16	64090
300.106	64100
300.092	64110
300.034	64120
300.051	64130
300.009	64140
300.003	64150
300.058	64160
299.992	64170
299.998	64180
299.996	64190
300.05	64200
300.012	64210
300.009	64220
299.992	64230
300.025	64240
299.97	64250
299.998	64260
300.003	64270
299.989	64280
299.987	64290
300.005	64300
300.03	64310
300.026	64320
299.995	64330
300.01	64340
300.002	64350
299.989	64360
299.97	64370
299.999	64380
300.034	64390
299.973	64400
300.03	64410
300.029	64420
300.025	64430
299.991	64440
300.006	64450
300.029	64460
299.985	64470
300.015	64480
299.992	64490
300.013	64500
299.998	64510
300.006	64520
300.02	64530
300.018	64540
300.033	64550
300.025	64560
300.041	64570
300.002	64580
299.978	64590
300.01	64600
300.0	64610
300.018	64620
300.003	64630
300.022	64640
299.97	64650
300.053	64660
300.066	64670
300.097	64680
300.102	64690
300.202	64700
300.152	64710
300.132	64720
300.119	64730
300.128	64740
300.035	64750
300.028	64760
300.01	64770
300.015	64780
300.009	64790
300.005	64800
299.855	64810
299.801	64820
300.149	64830
300.824	64840
300.934	64850
300.214	64860
299.724	64870
299.722	64880
299.945	64890
299.992	64900
300.042	64910
300.04	64920
300.078	64930
300.119	64940
300.153	64950
300.191	64960
300.167	64970
300.197	64980
300.209	64990
300.203	65000
300.124	65010
300.132	65020
300.107	65030
300.059	65040
300.045	65050
300.01	65060
300.048	65070
300.007	65080
300.006	65090
299.991	65100
299.986	65110
300.007	65120
299.983	65130
299.965	65140
299.989	65150
299.991	65160
299.997	65170
299.998	65180
300.011	65190
300.014	65200
299.968	65210
300.004	65220
299.998	65230
299.983	65240
300.005	65250
300.005	65260
300.009	65270
300.016	65280
299.981	65290
299.988	65300
300.001	65310
299.992	65320
300.004	65330
299.993	65340
299.94	65350
299.99	65360
299.991	65370
299.998	65380
299.998	65390
299.978	65400
300.02	65410
300.0	65420
300.009	65430
299.997	65440
299.99	65450
300.023	65460
299.962	65470
299.98	65480
299.984	65490
300.02	65500
300.01	65510
299.986	65520
299.988	65530
300.007	65540
299.978	65550
299.954	65560
299.998	65570
300.022	65580
300.05	65590
300.109	65600
300.143	65610
300.147	65620
300.12	65630
300.2	65640
300.109	65650
300.069	65660
300.063	65670
300.041	65680
300.014	65690
300.01	65700
299.972	65710
300.007	65720
299.908	65730
299.725	65740
299.985	65750
300.59	65760
300.996	65770
300.446	65780
299.778	65790
299.643	65800
299.856	65810
300.003	65820
299.989	65830
300.025	65840
300.06	65850
300.086	65860
300.13	65870
300.14	65880
300.179	65890
300.211	65900
300.195	65910
300.168	65920
300.176	65930
300.078	65940
300.104	65950
300.055	65960
300.023	65970
300.034	65980
299.994	65990
299.988	66000
299.978	66010
299.986	66020
299.986	66030
300.008	66040
299.963	66050
300.003	66060
299.974	66070
299.984	66080
299.955	66090
299.966	66100
299.97	66110
299.988	66120
299.971	66130
300.01	66140
300.041	66150
299.995	66160
299.959	66170
300.003	66180
299.986	66190
299.973	66200
299.962	66210
299.996	66220
299.994	66230
299.965	66240
300.004	66250
299.984	66260
299.998	66270
300.001	66280
299.969	66290
299.971	66300
299.976	66310
299.966	66320
299.989	66330
299.987	66340
300.005	66350
299.97	66360
300.013	66370
299.953	66380
299.993	66390
300.011	66400
299.977	66410
299.964	66420
299.987	66430
299.982	66440
299.986	66450
299.996	66460
299.981	66470
299.967	66480
300.012	66490
300.024	66500
300.024	66510
300.059	66520
300.093	66530
300.125	66540
300.135	66550
300.17	66560
300.146	66570
300.054	66580
300.046	66590
300.012	66600
300.038	66610
299.978	66620
300.011	66630
300.05	66640
299.953	66650
299.776	66660
299.826	66670
300.34	66680
300.904	66690
300.645	66700
299.949	66710
299.653	66720
299.782	66730
299.953	66740
299.971	66750
300.011	66760
300.008	66770
300.053	66780
300.089	66790
300.111	66800
300.147	66810
300.2	66820
300.196	66830
300.171	66840
300.139	66850
300.096	66860
300.088	66870
300.077	66880
300.029	66890
300.02	66900
299.983	66910
300.012	66920
299.958	66930
299.987	66940
299.979	66950
299.984	66960
299.965	66970
300.004	66980
299.992	66990
299.972	67000
299.962	67010
299.98	67020
299.991	67030
299.939	67040
299.995	67050
299.983	67060
299.985	67070
299.965	67080
300.0	67090
300.009	67100
299.99	67110
299.996	67120
299.96	67130
299.934	67140
299.989	67150
299.97	67160
299.969	67170
299.982	67180
299.971	67190
299.998	67200
299.985	67210
299.976	67220
299.927	67230
299.956	67240
299.967	67250
299.981	67260
299.999	67270
299.991	67280
299.979	67290
299.981	67300
299.991	67310
300.002	67320
299.943	67330
299.971	67340
300.018	67350
299.972	67360
299.995	67370
299.986	67380
299.989	67390
300.001	67400
300.014	67410
300.002	67420
300.0	67430
299.999	67440
300.04	67450
300.094	67460
300.145	67470
300.133	67480
300.135	67490
300.085	67500
300.042	67510
300.01	67520
300.022	67530
299.981	67540
299.994	67550
299.979	67560
299.988	67570
299.858	67580
299.787	67590
300.142	67600
300.801	67610
300.868	67620
300.138	67630
299.688	67640
299.682	67650
299.932	67660
299.96	67670
300.033	67680
300.036	67690
300.032	67700
300.075	67710
300.116	67720
300.158	67730
300.174	67740
300.189	67750
300.16	67760
300.191	67770
300.146	67780
300.126	67790
300.054	67800
300.011	67810
300.033	67820
300.009	67830
299.989	67840
299.966	67850
299.975	67860
299.993	67870
299.966	67880
299.971	67890
299.982	67900
299.999	67910
299.963	67920
299.989	67930
299.971	67940
299.944	67950
299.982	67960
299.989	67970
299.949	67980
299.973	67990
300.02	68000
299.967	68010
299.985	68020
299.972	68030
299.984	68040
300.005	68050
299.951	68060
299.999	68070
299.998	68080
299.99	68090
299.951	68100
299.964	68110
299.965	68120
299.99	68130
300.023	68140
299.976	68150
299.97	68160
300.0	68170
299.955	68180
299.937	68190
299.983	68200
299.98	68210
299.969	68220
299.983	68230
299.97	68240
300.01	68250
300.002	68260
299.991	68270
299.98	68280
299.957	68290
299.998	68300
299.978	68310
299.978	68320
300.001	68330
299.997	68340
300.003	68350
300.01	68360
300.091	68370
300.076	68380
300.118	68390
300.1	68400
300.141	68410
300.063	68420
300.055	68430
300.028	68440
300.034	68450
299.993	68460
299.968	68470
299.969	68480
299.972	68490
299.887	68500
299.753	68510
299.985	68520
300.645	68530
300.977	68540
300.37	68550
299.753	68560
299.657	68570
299.885	68580
299.976	68590
300.008	68600
300.001	68610
299.988	68620
300.073	68630
300.124	68640
300.165	68650
300.177	68660
300.166	68670
300.178	68680
300.16	68690
300.173	68700
300.152	68710
300.074	68720
300.081	68730
300.025	68740
300.0	68750
299.993	68760
299.99	68770
299.953	68780
299.988	68790
299.977	68800
299.968	68810
299.953	68820
299.951	68830
299.97	68840
299.964	68850
299.984	68860
299.988	68870
299.986	68880
299.995	68890
300.01	68900
299.993	68910
299.954	68920
299.968	68930
299.986	68940
299.995	68950
299.982	68960
299.959	68970
299.994	68980
300.018	68990
299.963	69000
300.013	69010
299.996	69020
299.975	69030
299.975	69040
299.941	69050
299.993	69060
299.944	69070
299.968	69080
300.026	69090
300.037	69100
299.987	69110
299.983	69120
300.009	69130
300.019	69140
299.996	69150
300.017	69160
299.98	69170
300.004	69180
299.991	69190
299.986	69200
299.964	69210
299.973	69220
299.988	69230
299.984	69240
299.975	69250
300.003	69260
300.021	69270
300.071	69280
300.086	69290
300.134	69300
300.128	69310
300.137	69320
300.162	69330
300.141	69340
300.065	69350
300.054	69360
300.041	69370
300.043	69380
300.008	69390
299.967	69400
299.986	69410
299.927	69420
299.757	69430
299.87	69440
300.422	69450
300.989	69460
300.605	69470
299.943	69480
299.658	69490
299.824	69500
299.98	69510
300.034	69520
300.008	69530
300.04	69540
300.08	69550
300.093	69560
300.174	69570
300.179	69580
300.147	69590
300.197	69600
300.16	69610
300.117	69620
300.136	69630
300.128	69640
300.071	69650
300.062	69660
300.011	69670
300.023	69680
300.024	69690
299.982	69700
300.002	69710
299.995	69720
299.982	69730
299.988	69740
300.01	69750
299.982	69760
300.006	69770
300.015	69780
299.977	69790
300.027	69800
300.002	69810
299.99	69820
299.982	69830
299.975	69840
299.956	69850
300.022	69860
300.005	69870
299.952	69880
300.007	69890
299.981	69900
299.987	69910
299.984	69920
299.983	69930
299.965	69940
299.972	69950
300.029	69960
299.983	69970
299.964	69980
300.023	69990
300.016	70000
299.998	70010
300.016	70020
300.012	70030
300.025	70040
299.991	70050
299.992	70060
300.008	70070
299.994	70080
299.977	70090
300.013	70100
299.998	70110
300.009	70120
299.999	70130
300.015	70140
299.99	70150
300.017	70160
300.003	70170
299.993	70180
300.035	70190
300.04	70200
300.098	70210
300.111	70220
300.11	70230
300.099	70240
300.176	70250
300.146	70260
300.103	70270
300.093	70280
300.066	70290
299.993	70300
299.999	70310
299.994	70320
300.015	70330
300.013	70340
299.807	70350
299.833	70360
300.246	70370
300.874	70380
300.789	70390
300.085	70400
299.722	70410
299.723	70420
299.961	70430
300.055	70440
300.058	70450
300.047	70460
300.021	70470
300.117	70480
300.128	70490
300.177	70500
300.191	70510
300.188	70520
300.234	70530
300.172	70540
300.125	70550
300.157	70560
300.095	70570
300.038	70580
300.064	70590
300.038	70600
300.017	70610
300.015	70620
300.005	70630
299.97	70640
300.04	70650
299.988	70660
300.003	70670
299.972	70680
300.006	70690
299.979	70700
299.989	70710
300.011	70720
300.001	70730
300.035	70740
300.023	70750
300.017	70760
300.01	70770
300.015	70780
300.044	70790
300.011	70800
300.01	70810
300.001	70820
300.004	70830
300.031	70840
300.005	70850
300.041	70860
299.994	70870
300.012	70880
299.97	70890
300.03	70900
300.002	70910
300.012	70920
300.013	70930
300.022	70940
300.031	70950
300.013	70960
300.028	70970
300.035	70980
300.031	70990
300.028	71000
300.01	71010
300.029	71020
300.052	71030
299.987	71040
300.001	71050
300.013	71060
300.008	71070
300.05	71080
300.023	71090
300.018	71100
300.068	71110
300.052	71120
300.093	71130
300.06	71140
300.134	71150
300.186	71160
300.177	71170
300.146	71180
300.119	71190
300.08	71200
300.066	71210
300.055	71220
300.052	71230
300.029	71240
300.002	71250
299.983	71260
299.917	71270
299.78	71280
300.079	71290
300.721	71300
300.959	71310
300.341	71320
299.781	71330
299.711	71340
299.905	71350
300.015	71360
300.008	71370
300.055	71380
300.088	71390
300.124	71400
300.114	71410
300.157	71420
300.238	71430
300.214	71440
300.223	71450
300.203	71460
300.185	71470
300.132	71480
300.091	71490
300.097	71500
300.075	71510
300.027	71520
300.035	71530
300.021	71540
300.021	71550
300.016	71560
300.025	71570
299.999	71580
300.015	71590
300.032	71600
300.031	71610
300.035	71620
300.029	71630
300.004	71640
300.004	71650
300.034	71660
300.002	71670
299.982	71680
299.999	71690
300.014	71700
300.018	71710
300.042	71720
300.03	71730
300.056	71740
299.983	71750
299.992	71760
300.029	71770
299.991	71780
300.024	71790
300.058	71800
300.003	71810
300.003	71820
300.027	71830
300.021	71840
300.014	71850
300.061	71860
300.036	71870
299.994	71880
300.016	71890
300.003	71900
300.028	71910
300.032	71920
299.985	71930
300.021	71940
299.98	71950
300.045	71960
300.042	71970
300.024	71980
300.0	71990
300.029	72000
300.014	72010
300.004	72020
300.054	72030
300.054	72040
300.077	72050
300.103	72060
300.117	72070
300.164	72080
300.181	72090
300.132	72100
300.134	72110
300.095	72120
300.105	72130
300.074	72140
300.044	72150
300.024	72160
300.014	72170
300.012	72180
299.992	72190
299.78	72200
299.935	72210
300.507	72220
301.025	72230
300.568	72240
299.919	72250
299.683	72260
299.84	72270
300.035	72280
300.062	72290
300.059	72300
300.091	72310
300.124	72320
300.161	72330
300.147	72340
300.184	72350
300.183	72360
300.21	72370
300.241	72380
300.22	72390
300.147	72400
300.121	72410
300.105	72420
300.108	72430
300.041	72440
300.047	72450
300.027	72460
300.016	72470
299.989	72480
300.043	72490
300.037	72500
300.029	72510
300.025	72520
299.997	72530
300.03	72540
299.985	72550
299.991	72560
300.029	72570
300.024	72580
300.015	72590
300.027	72600
300.005	72610
300.009	72620
299.998	72630
300.023	72640
300.004	72650
300.06	72660
300.026	72670
300.036	72680
299.99	72690
300.039	72700
300.046	72710
299.998	72720
300.014	72730
300.046	72740
300.001	72750
300.019	72760
300.028	72770
300.026	72780
300.0	72790
300.012	72800
300.032	72810
299.997	72820
300.011	72830
300.028	72840
300.023	72850
300.022	72860
300.017	72870
300.01	72880
299.984	72890
300.029	72900
300.027	72910
300.013	72920
300.003	72930
300.015	72940
299.986	72950
300.052	72960
300.055	72970
300.097	72980
300.095	72990
300.173	73000
300.177	73010
300.166	73020
300.137	73030
300.103	73040
300.103	73050
300.076	73060
300.034	73070
300.028	73080
300.035	73090
300.039	73100
299.994	73110
299.813	73120
299.84	73130
300.296	73140
300.954	73150
300.801	73160
300.051	73170
299.685	73180
299.801	73190
300.006	73200
300.055	73210
300.074	73220
300.048	73230
300.093	73240
300.123	73250
300.162	73260
300.203	73270
300.197	73280
300.236	73290
300.239	73300
300.229	73310
300.149	73320
300.129	73330
300.1	73340
300.071	73350
300.044	73360
300.026	73370
300.034	73380
300.04	73390
300.019	73400
300.01	73410
300.04	73420
300.034	73430
300.022	73440
300.024	73450
300.025	73460
300.002	73470
300.029	73480
299.996	73490
300.039	73500
300.028	73510
300.053	73520
300.009	73530
300.04	73540
300.03	73550
300.004	73560
300.036	73570
300.021	73580
300.017	73590
300.002	73600
300.013	73610
300.025	73620
300.003	73630
300.043	73640
300.006	73650
300.016	73660
299.996	73670
299.988	73680
300.029	73690
300.026	73700
300.013	73710
300.023	73720
300.016	73730
299.997	73740
300.04	73750
300.0	73760
299.997	73770
300.005	73780
299.977	73790
300.013	73800
300.013	73810
300.017	73820
300.001	73830
300.005	73840
300.024	73850
300.044	73860
300.005	73870
299.974	73880
300.02	73890
300.074	73900
300.118	73910
300.147	73920
300.18	73930
300.171	73940
300.15	73950
300.133	73960
300.076	73970
300.04	73980
300.04	73990
300.003	74000
300.006	74010
300.006	74020
299.98	74030
299.905	74040
299.762	74050
300.118	74060
300.769	74070
300.934	74080
300.287	74090
299.73	74100
299.738	74110
299.935	74120
299.977	74130
300.037	74140
300.042	74150
300.099	74160
300.091	74170
300.088	74180
300.176	74190
300.203	74200
300.199	74210
300.196	74220
300.174	74230
300.166	74240
300.138	74250
300.118	74260
300.066	74270
300.065	74280
300.004	74290
300.022	74300
300.007	74310
300.038	74320
300.015	74330
300.035	74340
300.008	74350
299.995	74360
300.013	74370
300.003	74380
300.012	74390
299.985	74400
300.028	74410
300.021	74420
300.017	74430
300.021	74440
300.007	74450
299.982	74460
299.988	74470
300.011	74480
300.011	74490
300.035	74500
300.008	74510
299.992	74520
299.999	74530
300.021	74540
300.009	74550
300.01	74560
300.0	74570
300.007	74580
300.008	74590
300.014	74600
300.001	74610
300.007	74620
299.964	74630
300.004	74640
300.044	74650
300.007	74660
299.989	74670
300.014	74680
300.004	74690
299.999	74700
300.014	74710
300.01	74720
300.008	74730
300.027	74740
300.004	74750
300.01	74760
300.016	74770
299.985	74780
299.99	74790
299.996	74800
300.037	74810
300.037	74820
300.097	74830
300.12	74840
300.126	74850
300.154	74860
300.182	74870
300.099	74880
300.091	74890
300.06	74900
300.037	74910
300.011	74920
300.025	74930
300.007	74940
300.036	74950
299.94	74960
299.768	74970
299.942	74980
300.555	74990
301.001	75000
300.494	75010
299.848	75020
299.671	75030
299.851	75040
299.999	75050
299.987	75060
300.031	75070
300.038	75080
300.089	75090
300.116	75100
300.129	75110
300.203	75120
300.192	75130
300.183	75140
300.174	75150
300.189	75160
300.144	75170
300.08	75180
300.057	75190
300.031	75200
300.005	75210
300.003	75220
300.022	75230
300.006	75240
299.991	75250
299.971	75260
300.009	75270
300.013	75280
300.024	75290
299.976	75300
299.996	75310
299.994	75320
299.98	75330
299.986	75340
299.981	75350
300.01	75360
299.971	75370
299.993	75380
299.986	75390
300.011	75400
299.995	75410
299.987	75420
300.001	75430
299.986	75440
300.003	75450
299.979	75460
300.006	75470
300.012	75480
299.995	75490
299.98	75500
300.002	75510
299.983	75520
300.022	75530
299.961	75540
299.998	75550
300.01	75560
299.957	75570
299.981	75580
299.979	75590
299.989	75600
299.988	75610
299.998	75620
299.996	75630
299.97	75640
300.012	75650
300.005	75660
299.995	75670
299.968	75680
300.003	75690
300.003	75700
299.974	75710
299.992	75720
300.016	75730
300.054	75740
300.072	75750
300.118	75760
300.137	75770
300.14	75780
300.113	75790
300.096	75800
300.064	75810
300.069	75820
300.002	75830
300.016	75840
299.985	75850
299.979	75860
299.961	75870
299.966	75880
299.824	75890
299.815	75900
300.298	75910
300.909	75920
300.704	75930
299.992	75940
299.643	75950
299.778	75960
299.947	75970
299.997	75980
300.032	75990
300.045	76000
300.064	76010
300.091	76020
300.122	76030
300.164	76040
300.142	76050
300.183	76060
300.174	76070
300.16	76080
300.105	76090
300.078	76100
300.086	76110
300.031	76120
300.026	76130
300.009	76140
299.996	76150
299.968	76160
299.996	76170
299.991	76180
299.974	76190
300.017	76200
299.991	76210
299.988	76220
299.984	76230
300.011	76240
299.997	76250
299.971	76260
299.978	76270
299.967	76280
299.983	76290
300.014	76300
300.004	76310
299.996	76320
299.998	76330
299.98	76340
300.0	76350
299.997	76360
299.977	76370
299.963	76380
299.998	76390
299.964	76400
299.976	76410
299.963	76420
299.991	76430
299.968	76440
299.969	76450
299.985	76460
300.013	76470
300.008	76480
300.008	76490
299.964	76500
299.989	76510
300.004	76520
299.997	76530
299.987	76540
299.959	76550
299.978	76560
300.007	76570
300.004	76580
299.968	76590
299.986	76600
300.004	76610
299.968	76620
299.965	76630
299.983	76640
300.029	76650
300.002	76660
300.079	76670
300.069	76680
300.092	76690
300.125	76700
300.084	76710
300.123	76720
300.08	76730
300.048	76740
300.033	76750
299.991	76760
299.98	76770
299.959	76780
299.964	76790
299.958	76800
299.86	76810
299.75	76820
300.126	76830
300.758	76840
300.927	76850
300.176	76860
299.671	76870
299.666	76880
299.907	76890
300.002	76900
300.003	76910
300.03	76920
300.054	76930
300.075	76940
300.113	76950
300.15	76960
300.158	76970
300.191	76980
300.176	76990
300.19	77000
300.144	77010
300.13	77020
300.062	77030
300.004	77040
300.042	77050
299.996	77060
299.983	77070
299.93	77080
299.98	77090
299.995	77100
299.976	77110
300.015	77120
299.99	77130
299.969	77140
299.976	77150
299.987	77160
299.974	77170
299.999	77180
300.013	77190
299.973	77200
299.989	77210
299.97	77220
299.991	77230
299.942	77240
299.967	77250
299.972	77260
299.985	77270
299.998	77280
300.007	77290
299.966	77300
299.981	77310
299.983	77320
299.95	77330
299.982	77340
299.974	77350
299.999	77360
299.95	77370
299.969	77380
299.989	77390
299.971	77400
299.975	77410
300.014	77420
299.992	77430
300.003	77440
299.992	77450
300.014	77460
299.988	77470
299.987	77480
300.011	77490
299.959	77500
299.982	77510
299.977	77520
299.962	77530
299.975	77540
299.979	77550
299.997	77560
299.994	77570
300.004	77580
300.041	77590
300.07	77600
300.117	77610
300.103	77620
300.146	77630
300.17	77640
300.124	77650
300.104	77660
300.017	77670
299.999	77680
300.002	77690
300.0	77700
300.003	77710
300.004	77720
299.902	77730
299.739	77740
299.969	77750
300.581	77760
300.992	77770
300.436	77780
299.8	77790
299.66	77800
299.859	77810
300.0	77820
300.011	77830
300.026	77840
300.048	77850
300.084	77860
300.087	77870
300.11	77880
300.186	77890
300.166	77900
300.164	77910
300.173	77920
300.167	77930
300.104	77940
300.125	77950
300.037	77960
300.032	77970
300.025	77980
299.984	77990
299.996	78000
299.999	78010
299.976	78020
299.997	78030
299.98	78040
299.97	78050
299.955	78060
299.939	78070
299.988	78080
299.995	78090
300.002	78100
299.953	78110
299.965	78120
299.987	78130
299.985	78140
299.971	78150
299.982	78160
299.967	78170
299.994	78180
299.999	78190
299.985	78200
300.03	78210
300.013	78220
299.984	78230
299.94	78240
299.996	78250
300.002	78260
299.97	78270
299.972	78280
300.006	78290
299.985	78300
299.997	78310
300.009	78320
299.97	78330
299.985	78340
299.966	78350
299.988	78360
300.008	78370
299.992	78380
300.0	78390
299.967	78400
299.959	78410
299.995	78420
300.006	78430
299.988	78440
299.993	78450
299.945	78460
299.967	78470
299.996	78480
300.0	78490
300.009	78500
300.007	78510
300.041	78520
300.123	78530
300.104	78540
300.132	78550
300.147	78560
300.154	78570
300.052	78580
300.033	78590
300.033	78600
299.989	78610
300.013	78620
299.977	78630
300.021	78640
299.923	78650
299.791	78660
299.841	78670
300.416	78680
300.953	78690
300.674	78700
299.931	78710
299.656	78720
299.825	78730
299.968	78740
299.984	78750
300.023	78760
300.042	78770
300.055	78780
300.114	78790
300.127	78800
300.184	78810
300.173	78820
300.205	78830
300.138	78840
300.163	78850
300.104	78860
300.107	78870
300.086	78880
300.069	78890
300.039	78900
300.023	78910
299.98	78920
299.987	78930
299.986	78940
299.982	78950
300.004	78960
299.983	78970
299.996	78980
299.961	78990
299.997	79000
299.977	79010
300.021	79020
299.989	79030
299.994	79040
299.989	79050
299.987	79060
299.972	79070
299.983	79080
299.985	79090
299.988	79100
299.976	79110
299.995	79120
299.967	79130
300.019	79140
300.041	79150
299.996	79160
299.985	79170
300.012	79180
299.975	79190
299.985	79200
299.991	79210
299.995	79220
299.98	79230
300.025	79240
299.99	79250
299.998	79260
299.985	79270
299.985	79280
300.015	79290
300.017	79300
299.988	79310
300.038	79320
299.981	79330
299.975	79340
299.981	79350
300.007	79360
300.012	79370
300.009	79380
299.987	79390
300.011	79400
299.983	79410
300.014	79420
300.023	79430
300.058	79440
300.092	79450
300.13	79460
300.148	79470
300.149	79480
300.103	79490
300.109	79500
300.078	79510
300.031	79520
300.038	79530
300.013	79540
300.002	79550
299.983	79560
299.971	79570
299.852	79580
299.799	79590
300.16	79600
300.841	79610
300.843	79620
300.154	79630
299.708	79640
299.748	79650
299.931	79660
300.012	79670
300.035	79680
300.065	79690
300.092	79700
300.08	79710
300.136	79720
300.154	79730
300.22	79740
300.205	79750
300.192	79760
300.189	79770
300.178	79780
300.095	79790
300.093	79800
300.087	79810
300.031	79820
300.013	79830
300.021	79840
300.009	79850
299.977	79860
300.022	79870
299.991	79880
299.974	79890
299.991	79900
300.015	79910
300.003	79920
300.002	79930
300.026	79940
299.991	79950
299.985	79960
299.971	79970
300.033	79980
300.02	79990
299.992	80000
299.999	80010
299.981	80020
299.982	80030
300.032	80040
300.004	80050
300.033	80060
299.988	80070
299.973	80080
299.976	80090
300.048	80100
299.99	80110
299.999	80120
299.986	80130
300.002	80140
300.0	80150
300.011	80160
300.007	80170
299.998	80180
300.013	80190
300.006	80200
300.018	80210
300.016	80220
300.015	80230
300.021	80240
300.02	80250
299.982	80260
300.021	80270
300.008	80280
300.015	80290
300.002	80300
300.008	80310
299.972	80320
300.007	80330
300.035	80340
300.05	80350
300.059	80360
300.075	80370
300.125	80380
300.164	80390
300.161	80400
300.162	80410
300.157	80420
300.047	80430
300.054	80440
300.04	80450
300.015	80460
299.999	80470
299.984	80480
299.973	80490
299.89	80500
299.743	80510
300.007	80520
300.672	80530
300.98	80540
300.415	80550
299.754	80560
299.683	80570
299.888	80580
299.999	80590
300.031	80600
300.054	80610
300.069	80620
300.083	80630
300.121	80640
300.155	80650
300.175	80660
300.193	80670
300.193	80680
300.212	80690
300.179	80700
300.12	80710
300.101	80720
300.083	80730
300.07	80740
300.027	80750
300.02	80760
300.015	80770
300.025	80780
300.013	80790
299.987	80800
300.004	80810
300.013	80820
300.013	80830
300.039	80840
300.046	80850
300.02	80860
300.019	80870
300.025	80880
300.027	80890
300.021	80900
300.017	80910
300.049	80920
300.024	80930
299.997	80940
300.014	80950
300.0	80960
299.999	80970
300.042	80980
300.02	80990
299.995	81000
299.965	81010
299.988	81020
300.007	81030
300.017	81040
300.021	81050
300.026	81060
300.035	81070
300.009	81080
300.017	81090
300.011	81100
300.002	81110
299.999	81120
300.02	81130
299.986	81140
300.007	81150
300.018	81160
300.003	81170
300.019	81180
300.01	81190
300.053	81200
300.019	81210
300.012	81220
300.019	81230
300.029	81240
300.014	81250
300.059	81260
300.062	81270
300.032	81280
300.051	81290
300.109	81300
300.166	81310
300.171	81320
300.178	81330
300.15	81340
300.131	81350
300.067	81360
300.063	81370
300.009	81380
300.015	81390
300.003	81400
300.034	81410
299.969	81420
299.773	81430
299.909	81440
300.439	81450
301.02	81460
300.63	81470
299.921	81480
299.649	81490
299.866	81500
300.028	81510
300.014	81520
300.033	81530
300.082	81540
300.063	81550
300.129	81560
300.146	81570
300.189	81580
300.232	81590
300.215	81600
300.23	81610
300.191	81620
300.177	81630
300.148	81640
300.118	81650
300.1	81660
300.027	81670
300.011	81680
300.025	81690
300.034	81700
299.991	81710
300.028	81720
300.032	81730
300.009	81740
299.983	81750
300.027	81760
300.012	81770
299.997	81780
299.998	81790
300.042	81800
300.043	81810
300.002	81820
300.028	81830
300.046	81840
300.025	81850
299.999	81860
300.027	81870
300.027	81880
300.007	81890
300.009	81900
300.03	81910
300.023	81920
300.04	81930
300.005	81940
300.012	81950
300.003	81960
300.007	81970
300.017	81980
300.03	81990
300.009	82000
300.005	82010
300.01	82020
300.048	82030
300.025	82040
300.02	82050
299.991	82060
300.013	82070
300.027	82080
300.047	82090
299.985	82100
300.052	82110
300.026	82120
300.02	82130
300.028	82140
299.995	82150
300.043	82160
300.03	82170
299.994	82180
300.046	82190
300.069	82200
300.062	82210
300.118	82220
300.132	82230
300.171	82240
300.151	82250
300.147	82260
300.098	82270
300.09	82280
300.052	82290
300.073	82300
300.048	82310
300.018	82320
300.021	82330
299.991	82340
299.864	82350
299.784	82360
300.247	82370
300.908	82380
300.827	82390
300.112	82400
299.692	82410
299.758	82420
299.966	82430
300.027	82440
300.023	82450
300.045	82460
300.102	82470
300.144	82480
300.16	82490
300.189	82500
300.243	82510
300.24	82520
300.215	82530
300.233	82540
300.179	82550
300.162	82560
300.107	82570
300.056	82580
300.076	82590
300.051	82600
300.012	82610
300.035	82620
300.021	82630
300.007	82640
300.019	82650
299.997	82660
300.032	82670
299.999	82680
300.0	82690
300.0	82700
300.041	82710
300.024	82720
300.044	82730
300.015	82740
300.017	82750
299.994	82760
300.002	82770
300.039	82780
300.009	82790
300.034	82800
300.034	82810
300.03	82820
300.04	82830
300.046	82840
300.051	82850
299.965	82860
300.039	82870
300.038	82880
300.028	82890
300.005	82900
300.012	82910
300.021	82920
300.006	82930
300.006	82940
300.018	82950
299.986	82960
300.016	82970
300.011	82980
300.043	82990
300.016	83000
300.002	83010
300.034	83020
300.02	83030
300.009	83040
300.031	83050
300.008	83060
300.053	83070
299.995	83080
300.014	83090
300.023	83100
300.055	83110
300.003	83120
300.046	83130
300.139	83140
300.152	83150
300.159	83160
300.156	83170
300.182	83180
300.137	83190
300.139	83200
300.074	83210
300.035	83220
300.024	83230
300.024	83240
300.029	83250
300.037	83260
299.92	83270
299.78	83280
300.094	83290
300.704	83300
300.979	83310
300.325	83320
299.808	83330
299.781	83340
299.894	83350
300.027	83360
300.033	83370
300.054	83380
300.065	83390
300.131	83400
300.134	83410
300.143	83420
300.199	83430
300.209	83440
300.209	83450
300.227	83460
300.2	83470
300.121	83480
300.114	83490
300.07	83500
300.069	83510
300.077	83520
300.033	83530
300.057	83540
300.038	83550
300.063	83560
300.033	83570
300.015	83580
300.037	83590
300.022	83600
300.009	83610
300.026	83620
300.009	83630
300.017	83640
300.031	83650
299.961	83660
300.015	83670
300.028	83680
300.017	83690
300.044	83700
300.021	83710
300.04	83720
300.023	83730
300.037	83740
300.037	83750
300.036	83760
300.014	83770
300.0	83780
300.032	83790
299.984	83800
300.001	83810
300.028	83820
300.008	83830
300.009	83840
299.997	83850
300.002	83860
300.001	83870
300.015	83880
300.039	83890
300.007	83900
299.99	83910
300.006	83920
300.022	83930
300.036	83940
300.037	83950
299.998	83960
300.04	83970
300.026	83980
300.006	83990
300.003	84000
299.997	84010
300.015	84020
300.029	84030
300.068	84040
300.065	84050
300.096	84060
300.116	84070
300.151	84080
300.182	84090
300.155	84100
300.134	84110
300.078	84120
300.058	84130
300.041	84140
300.022	84150
300.028	84160
300.034	84170
300.015	84180
299.95	84190
299.793	84200
299.941	84210
300.494	84220
301.0	84230
300.581	84240
299.905	84250
299.676	84260
299.826	84270
299.991	84280
300.0	84290
300.061	84300
300.045	84310
300.06	84320
300.097	84330
300.15	84340
300.169	84350
300.243	84360
300.16	84370
300.167	84380
300.153	84390
300.19	84400
300.101	84410
300.075	84420
300.05	84430
300.024	84440
299.992	84450
299.994	84460
300.002	84470
300.018	84480
300.028	84490
299.994	84500
300.027	84510
300.0	84520
300.001	84530
299.987	84540
299.985	84550
300.01	84560
300.003	84570
300.003	84580
299.984	84590
299.985	84600
299.98	84610
300.004	84620
300.023	84630
300.006	84640
300.013	84650
300.019	84660
300.038	84670
300.015	84680
300.014	84690
300.018	84700
300.004	84710
300.013	84720
300.012	84730
300.012	84740
300.006	84750
300.015	84760
300.013	84770
299.997	84780
299.998	84790
299.984	84800
300.011	84810
300.011	84820
299.999	84830
299.998	84840
299.972	84850
299.999	84860
300.014	84870
299.986	84880
299.987	84890
300.005	84900
300.032	84910
299.991	84920
300.014	84930
299.994	84940
300.018	84950
300.031	84960
300.048	84970
300.073	84980
300.103	84990
300.137	85000
300.159	85010
300.171	85020
300.094	85030
300.117	85040
300.049	85050
300.052	85060
300.016	85070
300.035	85080
299.972	85090
300.047	85100
299.978	85110
299.841	85120
299.811	85130
300.266	85140
300.97	85150
300.793	85160
300.021	85170
299.67	85180
299.768	85190
299.994	85200
300.023	85210
300.015	85220
300.064	85230
300.079	85240
300.137	85250
300.131	85260
300.164	85270
300.178	85280
300.22	85290
300.186	85300
300.163	85310
300.179	85320
300.092	85330
300.079	85340
300.053	85350
300.044	85360
300.016	85370
300.022	85380
300.032	85390
299.972	85400
300.026	85410
300.017	85420
300.001	85430
299.994	85440
300.029	85450
299.989	85460
300.005	85470
299.986	85480
300.005	85490
299.999	85500
299.994	85510
300.028	85520
299.991	85530
299.981	85540
299.959	85550
299.987	85560
299.981	85570
300.05	85580
299.999	85590
300.006	85600
300.0	85610
299.977	85620
299.987	85630
299.998	85640
299.994	85650
300.008	85660
299.961	85670
299.991	85680
299.999	85690
299.996	85700
299.989	85710
299.985	85720
299.991	85730
299.988	85740
299.979	85750
299.984	85760
300.001	85770
299.993	85780
299.973	85790
299.965	85800
299.994	85810
299.978	85820
300.005	85830
299.996	85840
300.018	85850
299.982	85860
299.975	85870
299.979	85880
299.985	85890
300.059	85900
300.081	85910
300.092	85920
300.131	85930
300.129	85940
300.16	85950
300.116	85960
300.07	85970
300.003	85980
299.987	85990
299.988	86000
299.996	86010
300.009	86020
299.991	86030
299.91	86040
299.712	86050
300.124	86060
300.748	86070
300.919	86080
300.253	86090
299.75	86100
299.718	86110
299.925	86120
299.999	86130
300.004	86140
300.054	86150
300.051	86160
300.038	86170
300.101	86180
300.128	86190
300.183	86200
300.193	86210
300.155	86220
300.146	86230
300.122	86240
300.126	86250
300.075	86260
300.048	86270
300.033	86280
300.024	86290
300.007	86300
300.041	86310
299.981	86320
299.983	86330
300.013	86340
299.978	86350
300.001	86360
299.976	86370
299.984	86380
299.995	86390
299.987	86400
300.003	86410
299.989	86420
300.007	86430
300.033	86440
299.984	86450
299.994	86460
299.944	86470
299.968	86480
299.983	86490
300.021	86500
300.007	86510
299.997	86520
299.98	86530
300.001	86540
299.981	86550
299.99	86560
299.987	86570
299.963	86580
299.969	86590
299.974	86600
299.975	86610
299.997	86620
299.957	86630
299.966	86640
300.002	86650
299.99	86660
299.999	86670
299.985	86680
300.036	86690
299.994	86700
299.982	86710
299.968	86720
299.953	86730
299.993	86740
299.973	86750
299.97	86760
299.965	86770
299.997	86780
299.983	86790
299.989	86800
300.02	86810
299.998	86820
300.047	86830
300.085	86840
300.096	86850
300.112	86860
300.123	86870
300.102	86880
300.06	86890
300.013	86900
300.004	86910
300.024	86920
299.985	86930
299.991	86940
300.005	86950
299.92	86960
299.727	86970
299.965	86980
300.489	86990
300.979	87000
300.492	87010
299.839	87020
299.681	87030
299.848	87040
299.997	87050
299.984	87060
300.02	87070
300.043	87080
300.043	87090
300.113	87100
300.133	87110
300.13	87120
300.182	87130
300.189	87140
300.17	87150
300.156	87160
300.103	87170
300.094	87180
300.047	87190
300.055	87200
300.015	87210
