299.765	0
299.801	10
299.786	20
299.807	30
299.836	40
299.857	50
299.903	60
299.939	70
299.986	80
299.964	90
299.895	100
299.839	110
299.843	120
299.823	130
299.84	140
299.804	150
299.804	160
299.623	170
299.617	180
300.288	190
300.799	200
300.183	210
299.544	220
299.554	230
299.781	240
299.786	250
299.823	260
299.875	270
299.892	280
299.898	290
299.96	300
299.98	310
299.997	320
299.986	330
299.957	340
299.928	350
299.898	360
299.825	370
299.836	380
299.809	390
299.85	400
299.828	410
299.817	420
299.84	430
299.835	440
299.793	450
299.768	460
299.84	470
299.799	480
299.815	490
299.797	500
299.796	510
299.821	520
299.77	530
299.831	540
299.796	550
299.76	560
299.816	570
299.81	580
299.832	590
299.839	600
299.813	610
299.794	620
299.81	630
299.83	640
299.813	650
299.869	660
299.789	670
299.805	680
299.845	690
299.836	700
299.771	710
299.864	720
299.779	730
299.824	740
299.799	750
299.814	760
299.8	770
299.766	780
299.829	790
299.813	800
299.796	810
299.844	820
299.811	830
299.81	840
299.918	850
299.919	860
299.92	870
299.966	880
299.944	890
299.946	900
299.898	910
299.83	920
299.843	930
299.873	940
299.823	950
299.807	960
299.629	970
299.67	980
300.242	990
300.881	1000
300.193	1010
299.537	1020
299.572	1030
299.762	1040
299.82	1050
299.831	1060
299.882	1070
299.907	1080
299.914	1090
299.99	1100
300.05	1110
299.984	1120
300.013	1130
299.944	1140
299.96	1150
299.902	1160
299.889	1170
299.858	1180
299.844	1190
299.84	1200
299.833	1210
299.819	1220
299.774	1230
299.833	1240
299.831	1250
299.821	1260
299.825	1270
299.815	1280
299.815	1290
299.842	1300
299.824	1310
299.792	1320
299.782	1330
299.823	1340
299.784	1350
299.778	1360
299.807	1370
299.814	1380
299.837	1390
299.797	1400
299.846	1410
299.837	1420
299.833	1430
299.823	1440
299.828	1450
299.802	1460
299.832	1470
299.814	1480
299.812	1490
299.827	1500
299.773	1510
299.819	1520
299.806	1530
299.793	1540
299.846	1550
299.848	1560
299.809	1570
299.793	1580
299.77	1590
299.839	1600
299.849	1610
299.823	1620
299.867	1630
299.842	1640
299.907	1650
299.918	1660
300.001	1670
300.006	1680
299.947	1690
299.897	1700
299.909	1710
299.846	1720
299.871	1730
299.848	1740
299.804	1750
299.818	1760
299.676	1770
299.691	1780
300.246	1790
300.86	1800
300.182	1810
299.543	1820
299.553	1830
299.804	1840
299.781	1850
299.863	1860
299.893	1870
299.908	1880
299.915	1890
299.937	1900
300.014	1910
300.012	1920
299.982	1930
299.971	1940
299.951	1950
299.916	1960
299.872	1970
299.825	1980
299.828	1990
299.804	2000
299.83	2010
299.798	2020
299.771	2030
299.754	2040
299.781	2050
299.836	2060
299.831	2070
299.827	2080
299.828	2090
299.829	2100
299.808	2110
299.791	2120
299.772	2130
299.801	2140
299.808	2150
299.824	2160
299.808	2170
299.837	2180
299.796	2190
299.798	2200
299.822	2210
299.817	2220
299.846	2230
299.826	2240
299.785	2250
299.788	2260
299.818	2270
299.838	2280
299.8	2290
299.793	2300
299.785	2310
299.848	2320
299.802	2330
299.859	2340
299.841	2350
299.813	2360
299.82	2370
299.798	2380
299.793	2390
299.847	2400
299.787	2410
299.811	2420
299.86	2430
299.816	2440
299.936	2450
299.936	2460
299.946	2470
299.956	2480
299.948	2490
299.958	2500
299.912	2510
299.869	2520
299.793	2530
299.826	2540
299.827	2550
299.841	2560
299.658	2570
299.704	2580
300.27	2590
300.83	2600
300.168	2610
299.56	2620
299.573	2630
299.842	2640
299.842	2650
299.873	2660
299.908	2670
299.954	2680
299.985	2690
300.01	2700
299.967	2710
300.047	2720
300.027	2730
299.973	2740
299.944	2750
299.908	2760
299.885	2770
299.859	2780
299.841	2790
299.854	2800
299.819	2810
299.825	2820
299.859	2830
299.808	2840
299.868	2850
299.843	2860
299.773	2870
299.854	2880
299.808	2890
299.822	2900
299.854	2910
299.819	2920
299.845	2930
299.786	2940
299.822	2950
299.857	2960
299.82	2970
299.809	2980
299.834	2990
299.785	3000
299.782	3010
299.818	3020
299.8	3030
299.824	3040
299.793	3050
299.819	3060
299.83	3070
299.814	3080
299.803	3090
299.82	3100
299.809	3110
299.832	3120
299.823	3130
299.811	3140
299.788	3150
299.808	3160
299.856	3170
299.818	3180
299.859	3190
299.815	3200
299.806	3210
299.821	3220
299.825	3230
299.854	3240
299.887	3250
299.94	3260
300.04	3270
299.989	3280
299.975	3290
299.943	3300
299.849	3310
299.881	3320
299.801	3330
299.854	3340
299.791	3350
299.808	3360
299.64	3370
299.668	3380
300.243	3390
300.789	3400
300.178	3410
299.559	3420
299.556	3430
299.77	3440
299.849	3450
299.853	3460
299.859	3470
299.918	3480
299.961	3490
299.965	3500
299.975	3510
299.999	3520
299.971	3530
300.012	3540
299.963	3550
299.955	3560
299.844	3570
299.848	3580
299.834	3590
299.86	3600
299.858	3610
299.836	3620
299.791	3630
299.853	3640
299.832	3650
299.825	3660
299.827	3670
299.821	3680
299.803	3690
299.831	3700
299.835	3710
299.841	3720
299.835	3730
299.782	3740
299.814	3750
299.813	3760
299.842	3770
299.801	3780
299.795	3790
299.748	3800
299.826	3810
299.783	3820
299.858	3830
299.802	3840
299.825	3850
299.816	3860
299.803	3870
299.82	3880
299.834	3890
299.808	3900
299.833	3910
299.82	3920
299.831	3930
299.826	3940
299.77	3950
299.8	3960
299.817	3970
299.804	3980
299.816	3990
299.806	4000
299.814	4010
299.875	4020
299.864	4030
299.831	4040
299.896	4050
299.901	4060
299.967	4070
299.948	4080
299.97	4090
299.932	4100
299.881	4110
299.854	4120
299.809	4130
299.828	4140
299.771	4150
299.786	4160
299.661	4170
299.644	4180
300.286	4190
300.843	4200
300.206	4210
299.558	4220
299.522	4230
299.781	4240
299.815	4250
299.881	4260
299.837	4270
299.856	4280
299.909	4290
299.955	4300
300.015	4310
300.053	4320
299.995	4330
299.991	4340
299.88	4350
299.936	4360
299.897	4370
299.861	4380
299.847	4390
299.828	4400
299.785	4410
299.808	4420
299.771	4430
299.843	4440
299.825	4450
299.818	4460
299.759	4470
299.808	4480
299.832	4490
299.806	4500
299.837	4510
299.762	4520
299.828	4530
299.833	4540
299.773	4550
299.793	4560
299.828	4570
299.788	4580
299.811	4590
299.837	4600
299.814	4610
299.821	4620
299.836	4630
299.797	4640
299.83	4650
299.806	4660
299.82	4670
299.812	4680
299.766	4690
299.783	4700
299.815	4710
299.797	4720
299.774	4730
299.794	4740
299.763	4750
299.836	4760
299.796	4770
299.776	4780
299.864	4790
299.801	4800
299.798	4810
299.823	4820
299.835	4830
299.868	4840
299.863	4850
299.934	4860
299.978	4870
299.941	4880
299.947	4890
299.899	4900
299.88	4910
299.825	4920
299.823	4930
299.835	4940
299.812	4950
299.759	4960
299.673	4970
299.618	4980
300.221	4990
300.841	5000
300.187	5010
299.54	5020
299.582	5030
299.802	5040
299.818	5050
299.787	5060
299.884	5070
299.889	5080
299.929	5090
299.979	5100
299.973	5110
299.996	5120
300.005	5130
299.975	5140
299.936	5150
299.908	5160
299.855	5170
299.81	5180
299.838	5190
299.819	5200
299.811	5210
299.824	5220
299.813	5230
299.779	5240
299.837	5250
299.79	5260
299.844	5270
299.814	5280
299.74	5290
299.793	5300
299.798	5310
299.784	5320
299.772	5330
299.811	5340
299.776	5350
299.809	5360
299.824	5370
299.762	5380
299.816	5390
299.771	5400
299.793	5410
299.771	5420
299.782	5430
299.807	5440
299.798	5450
299.792	5460
299.782	5470
299.782	5480
299.844	5490
299.821	5500
299.811	5510
299.757	5520
299.765	5530
299.777	5540
299.834	5550
299.832	5560
299.762	5570
299.791	5580
299.819	5590
299.778	5600
299.76	5610
299.823	5620
299.811	5630
299.831	5640
299.848	5650
299.846	5660
299.95	5670
299.971	5680
299.912	5690
299.941	5700
299.908	5710
299.816	5720
299.837	5730
299.843	5740
299.786	5750
299.798	5760
299.616	5770
299.643	5780
300.237	5790
300.822	5800
300.159	5810
299.524	5820
299.518	5830
299.754	5840
299.801	5850
299.828	5860
299.829	5870
299.897	5880
299.885	5890
299.955	5900
299.998	5910
299.957	5920
299.987	5930
299.96	5940
299.966	5950
299.903	5960
299.796	5970
299.803	5980
299.821	5990
299.81	6000
299.784	6010
299.813	6020
299.793	6030
299.765	6040
299.829	6050
299.779	6060
299.798	6070
299.803	6080
299.793	6090
299.78	6100
299.776	6110
299.781	6120
299.787	6130
299.794	6140
299.788	6150
299.793	6160
299.755	6170
299.794	6180
299.824	6190
299.814	6200
299.777	6210
299.774	6220
299.81	6230
299.812	6240
299.766	6250
299.776	6260
299.8	6270
299.788	6280
299.811	6290
299.734	6300
299.772	6310
299.787	6320
299.778	6330
299.806	6340
299.769	6350
299.781	6360
299.795	6370
299.816	6380
299.795	6390
299.778	6400
299.782	6410
299.798	6420
299.794	6430
299.812	6440
299.855	6450
299.929	6460
299.913	6470
299.922	6480
299.914	6490
299.924	6500
299.884	6510
299.829	6520
299.819	6530
299.772	6540
299.799	6550
299.77	6560
299.609	6570
299.596	6580
300.222	6590
300.813	6600
300.17	6610
299.52	6620
299.539	6630
299.755	6640
299.778	6650
299.802	6660
299.838	6670
299.896	6680
299.923	6690
299.91	6700
300.026	6710
299.984	6720
299.961	6730
299.965	6740
299.924	6750
299.865	6760
299.851	6770
299.815	6780
299.786	6790
299.817	6800
299.769	6810
299.803	6820
299.751	6830
299.814	6840
299.795	6850
299.769	6860
299.741	6870
299.765	6880
299.771	6890
299.789	6900
299.788	6910
299.783	6920
299.831	6930
299.779	6940
299.773	6950
299.751	6960
299.805	6970
299.784	6980
299.75	6990
299.802	7000
299.793	7010
299.755	7020
299.744	7030
299.842	7040
299.779	7050
299.807	7060
299.792	7070
299.766	7080
299.778	7090
299.788	7100
299.767	7110
299.741	7120
299.774	7130
299.804	7140
299.786	7150
299.78	7160
299.787	7170
299.786	7180
299.775	7190
299.743	7200
299.721	7210
299.796	7220
299.769	7230
299.87	7240
299.827	7250
299.886	7260
299.903	7270
299.949	7280
299.922	7290
299.927	7300
299.851	7310
299.836	7320
299.771	7330
299.765	7340
299.78	7350
299.785	7360
299.637	7370
299.622	7380
300.222	7390
300.803	7400
300.172	7410
299.512	7420
299.539	7430
299.747	7440
299.773	7450
299.841	7460
299.801	7470
299.874	7480
299.882	7490
299.914	7500
299.982	7510
299.984	7520
299.994	7530
299.91	7540
299.917	7550
299.863	7560
299.85	7570
299.808	7580
299.796	7590
299.81	7600
299.8	7610
299.75	7620
299.792	7630
299.818	7640
299.786	7650
299.803	7660
299.742	7670
299.77	7680
299.793	7690
299.789	7700
299.728	7710
299.8	7720
299.783	7730
299.779	7740
299.761	7750
299.734	7760
299.769	7770
299.758	7780
299.764	7790
299.775	7800
299.801	7810
299.796	7820
299.799	7830
299.781	7840
299.797	7850
299.78	7860
299.806	7870
299.781	7880
299.777	7890
299.771	7900
299.8	7910
299.776	7920
299.761	7930
299.789	7940
299.77	7950
299.762	7960
299.778	7970
299.794	7980
299.776	7990
299.761	8000
299.771	8010
299.784	8020
299.794	8030
299.846	8040
299.836	8050
299.912	8060
299.945	8070
299.948	8080
299.905	8090
299.882	8100
299.837	8110
299.807	8120
299.751	8130
299.798	8140
299.795	8150
299.751	8160
299.611	8170
299.63	8180
300.237	8190
300.77	8200
300.157	8210
299.465	8220
299.488	8230
299.686	8240
299.823	8250
299.864	8260
299.845	8270
299.86	8280
299.919	8290
299.954	8300
299.984	8310
299.973	8320
299.99	8330
299.933	8340
299.912	8350
299.868	8360
299.836	8370
299.795	8380
299.835	8390
299.776	8400
299.78	8410
299.824	8420
299.823	8430
299.781	8440
299.734	8450
299.802	8460
299.815	8470
299.785	8480
299.768	8490
299.761	8500
299.772	8510
299.82	8520
299.762	8530
299.773	8540
299.778	8550
299.785	8560
299.781	8570
299.794	8580
299.771	8590
299.769	8600
299.753	8610
299.799	8620
299.758	8630
299.833	8640
299.813	8650
299.767	8660
299.78	8670
299.776	8680
299.738	8690
299.764	8700
299.795	8710
299.799	8720
299.795	8730
299.78	8740
299.791	8750
299.757	8760
299.796	8770
299.81	8780
299.771	8790
299.781	8800
299.808	8810
299.822	8820
299.828	8830
299.862	8840
299.838	8850
299.916	8860
299.961	8870
299.928	8880
299.925	8890
299.897	8900
299.85	8910
299.782	8920
299.776	8930
299.757	8940
299.759	8950
299.787	8960
299.655	8970
299.651	8980
300.21	8990
300.861	9000
300.204	9010
299.515	9020
299.493	9030
299.76	9040
299.809	9050
299.827	9060
299.858	9070
299.875	9080
299.898	9090
299.991	9100
299.977	9110
300.005	9120
299.99	9130
299.946	9140
299.93	9150
299.875	9160
299.836	9170
299.826	9180
299.788	9190
299.802	9200
299.824	9210
299.814	9220
299.797	9230
299.786	9240
299.782	9250
299.777	9260
299.775	9270
299.771	9280
299.783	9290
299.779	9300
299.813	9310
299.794	9320
299.805	9330
299.773	9340
299.807	9350
299.781	9360
299.821	9370
299.776	9380
299.802	9390
299.774	9400
299.759	9410
299.749	9420
299.776	9430
299.822	9440
299.796	9450
299.817	9460
299.789	9470
299.787	9480
299.786	9490
299.782	9500
299.786	9510
299.771	9520
299.789	9530
299.76	9540
299.829	9550
299.789	9560
299.806	9570
299.794	9580
299.781	9590
299.807	9600
299.811	9610
299.801	9620
299.816	9630
299.815	9640
299.868	9650
299.899	9660
299.973	9670
299.931	9680
299.906	9690
299.888	9700
299.856	9710
299.832	9720
299.805	9730
299.831	9740
299.805	9750
299.792	9760
299.612	9770
299.627	9780
300.225	9790
300.774	9800
300.194	9810
299.535	9820
299.538	9830
299.798	9840
299.795	9850
299.844	9860
299.888	9870
299.903	9880
299.982	9890
300.004	9900
299.989	9910
299.96	9920
300.015	9930
299.971	9940
299.92	9950
299.917	9960
299.862	9970
299.802	9980
299.806	9990
299.833	10000
299.847	10010
299.834	10020
299.817	10030
299.769	10040
299.782	10050
299.806	10060
299.787	10070
299.779	10080
299.828	10090
299.828	10100
299.772	10110
299.826	10120
299.794	10130
299.767	10140
299.782	10150
299.822	10160
299.831	10170
299.84	10180
299.828	10190
299.794	10200
299.817	10210
299.802	10220
299.822	10230
299.764	10240
299.807	10250
299.806	10260
299.805	10270
299.82	10280
299.823	10290
299.825	10300
299.817	10310
299.786	10320
299.792	10330
299.821	10340
299.817	10350
299.782	10360
299.813	10370
299.806	10380
299.844	10390
299.795	10400
299.83	10410
299.828	10420
299.812	10430
299.794	10440
299.863	10450
299.905	10460
299.931	10470
299.949	10480
299.949	10490
299.923	10500
299.859	10510
299.856	10520
299.791	10530
299.794	10540
299.801	10550
299.788	10560
299.633	10570
299.624	10580
300.265	10590
300.796	10600
300.172	10610
299.552	10620
299.545	10630
299.784	10640
299.844	10650
299.831	10660
299.869	10670
299.905	10680
299.956	10690
299.944	10700
299.988	10710
300.021	10720
300.01	10730
299.974	10740
299.946	10750
299.916	10760
299.864	10770
299.881	10780
299.849	10790
299.771	10800
299.796	10810
299.787	10820
299.839	10830
299.811	10840
299.795	10850
299.84	10860
299.808	10870
299.839	10880
299.826	10890
299.776	10900
299.809	10910
299.822	10920
299.828	10930
299.788	10940
299.791	10950
299.837	10960
299.823	10970
299.793	10980
299.857	10990
299.78	11000
299.764	11010
299.818	11020
299.795	11030
299.8	11040
299.822	11050
299.827	11060
299.809	11070
299.838	11080
299.835	11090
299.801	11100
299.828	11110
299.824	11120
299.822	11130
299.852	11140
299.805	11150
299.835	11160
299.825	11170
299.796	11180
299.799	11190
299.816	11200
299.855	11210
299.841	11220
299.83	11230
299.841	11240
299.888	11250
299.929	11260
299.982	11270
299.954	11280
299.944	11290
299.896	11300
299.846	11310
299.889	11320
299.848	11330
299.8	11340
299.815	11350
299.821	11360
299.627	11370
299.647	11380
300.254	11390
300.835	11400
300.197	11410
299.548	11420
299.575	11430
299.839	11440
299.8	11450
299.81	11460
299.883	11470
299.908	11480
299.928	11490
299.979	11500
299.996	11510
299.974	11520
299.991	11530
299.978	11540
299.926	11550
299.89	11560
299.856	11570
299.842	11580
299.834	11590
299.855	11600
299.835	11610
299.831	11620
299.778	11630
299.836	11640
299.815	11650
299.837	11660
299.776	11670
299.808	11680
299.769	11690
299.826	11700
299.813	11710
299.817	11720
299.844	11730
299.789	11740
299.803	11750
299.788	11760
299.825	11770
299.802	11780
299.848	11790
299.793	11800
299.85	11810
299.82	11820
299.85	11830
299.798	11840
299.837	11850
299.841	11860
299.84	11870
299.838	11880
299.781	11890
299.81	11900
299.8	11910
299.808	11920
299.794	11930
299.813	11940
299.799	11950
299.834	11960
299.825	11970
299.836	11980
299.868	11990
299.853	12000
299.8	12010
299.836	12020
299.827	12030
299.844	12040
299.92	12050
299.871	12060
300.01	12070
299.967	12080
299.971	12090
299.936	12100
299.896	12110
299.895	12120
299.824	12130
299.829	12140
299.808	12150
299.817	12160
299.663	12170
299.661	12180
300.248	12190
300.797	12200
300.177	12210
299.576	12220
299.581	12230
299.793	12240
299.887	12250
299.856	12260
299.889	12270
299.908	12280
299.948	12290
300.017	12300
300.063	12310
300.037	12320
300.008	12330
300.021	12340
299.975	12350
299.861	12360
299.911	12370
299.838	12380
299.868	12390
299.87	12400
299.844	12410
299.813	12420
299.822	12430
299.797	12440
299.808	12450
299.792	12460
299.834	12470
299.834	12480
299.839	12490
299.834	12500
299.794	12510
299.823	12520
299.851	12530
299.836	12540
299.787	12550
299.817	12560
299.824	12570
299.82	12580
299.805	12590
299.789	12600
299.798	12610
299.833	12620
299.853	12630
299.802	12640
299.846	12650
299.783	12660
299.876	12670
299.813	12680
299.84	12690
299.776	12700
299.766	12710
299.846	12720
299.828	12730
299.778	12740
299.819	12750
299.841	12760
299.777	12770
299.81	12780
299.877	12790
299.831	12800
299.834	12810
299.806	12820
299.853	12830
299.842	12840
299.902	12850
299.915	12860
299.958	12870
299.972	12880
299.951	12890
299.938	12900
299.889	12910
299.863	12920
299.821	12930
299.847	12940
299.851	12950
299.781	12960
299.676	12970
299.643	12980
300.261	12990
300.848	13000
300.217	13010
299.575	13020
299.533	13030
299.771	13040
299.834	13050
299.884	13060
299.903	13070
299.955	13080
299.949	13090
299.967	13100
300.021	13110
300.015	13120
300.059	13130
299.944	13140
299.927	13150
299.905	13160
299.89	13170
299.859	13180
299.803	13190
299.774	13200
299.872	13210
299.78	13220
299.854	13230
299.809	13240
299.803	13250
299.818	13260
299.791	13270
299.829	13280
299.822	13290
299.802	13300
299.832	13310
299.809	13320
299.794	13330
299.813	13340
299.819	13350
299.8	13360
299.78	13370
299.792	13380
299.86	13390
299.815	13400
299.84	13410
299.865	13420
299.874	13430
299.849	13440
299.825	13450
299.828	13460
299.85	13470
299.84	13480
299.799	13490
299.808	13500
299.815	13510
299.816	13520
299.795	13530
299.837	13540
299.814	13550
299.815	13560
299.786	13570
299.805	13580
299.792	13590
299.759	13600
299.821	13610
299.84	13620
299.846	13630
299.879	13640
299.873	13650
299.95	13660
299.933	13670
299.96	13680
299.955	13690
299.959	13700
299.916	13710
299.847	13720
299.879	13730
299.792	13740
299.803	13750
299.82	13760
299.64	13770
299.648	13780
300.256	13790
300.766	13800
300.198	13810
299.541	13820
299.542	13830
299.766	13840
299.84	13850
299.892	13860
299.88	13870
299.894	13880
299.93	13890
300.024	13900
300.008	13910
300.012	13920
299.995	13930
299.974	13940
299.949	13950
299.851	13960
299.891	13970
299.849	13980
299.83	13990
299.81	14000
299.81	14010
299.793	14020
299.835	14030
299.809	14040
299.801	14050
299.796	14060
299.81	14070
299.843	14080
299.829	14090
299.812	14100
299.84	14110
299.803	14120
299.808	14130
299.83	14140
299.81	14150
299.836	14160
299.828	14170
299.821	14180
299.786	14190
299.858	14200
299.801	14210
299.799	14220
299.781	14230
299.743	14240
299.799	14250
299.833	14260
299.8	14270
299.805	14280
299.787	14290
299.758	14300
299.808	14310
299.777	14320
299.793	14330
299.814	14340
299.787	14350
299.801	14360
299.793	14370
299.806	14380
299.834	14390
299.776	14400
299.814	14410
299.812	14420
299.811	14430
299.863	14440
299.893	14450
299.93	14460
299.943	14470
299.938	14480
299.951	14490
299.898	14500
299.834	14510
299.84	14520
299.83	14530
299.786	14540
299.769	14550
299.783	14560
299.661	14570
299.626	14580
300.273	14590
300.827	14600
300.218	14610
299.502	14620
299.555	14630
299.772	14640
299.816	14650
299.825	14660
299.854	14670
299.881	14680
299.928	14690
299.921	14700
299.996	14710
299.975	14720
299.985	14730
299.939	14740
299.959	14750
299.904	14760
299.863	14770
299.844	14780
299.824	14790
299.83	14800
299.779	14810
299.804	14820
299.801	14830
299.789	14840
299.793	14850
299.802	14860
299.787	14870
299.827	14880
299.828	14890
299.766	14900
299.833	14910
299.795	14920
299.803	14930
299.788	14940
299.788	14950
299.804	14960
299.834	14970
299.804	14980
299.792	14990
299.798	15000
299.798	15010
299.8	15020
299.804	15030
299.79	15040
299.809	15050
299.809	15060
299.753	15070
299.837	15080
299.794	15090
299.803	15100
299.798	15110
299.806	15120
299.791	15130
299.813	15140
299.828	15150
299.807	15160
299.785	15170
299.79	15180
299.787	15190
299.8	15200
299.804	15210
299.83	15220
299.811	15230
299.817	15240
299.875	15250
299.903	15260
299.898	15270
299.941	15280
299.955	15290
299.895	15300
299.882	15310
299.829	15320
299.856	15330
299.798	15340
299.807	15350
299.734	15360
299.647	15370
299.642	15380
300.26	15390
300.76	15400
300.205	15410
299.515	15420
299.5	15430
299.744	15440
299.828	15450
299.836	15460
299.824	15470
299.894	15480
299.961	15490
299.937	15500
299.964	15510
299.94	15520
299.979	15530
299.945	15540
299.923	15550
299.881	15560
299.865	15570
299.853	15580
299.802	15590
299.772	15600
299.78	15610
299.765	15620
299.82	15630
299.796	15640
299.789	15650
299.821	15660
299.786	15670
299.778	15680
299.781	15690
299.809	15700
299.766	15710
299.816	15720
299.742	15730
299.835	15740
299.761	15750
299.782	15760
299.781	15770
299.772	15780
299.751	15790
299.814	15800
299.799	15810
299.785	15820
299.807	15830
299.813	15840
299.801	15850
299.813	15860
299.769	15870
299.754	15880
299.814	15890
299.768	15900
299.802	15910
299.791	15920
299.778	15930
299.812	15940
299.788	15950
299.789	15960
299.781	15970
299.772	15980
299.775	15990
299.75	16000
299.801	16010
299.794	16020
299.783	16030
299.797	16040
299.885	16050
299.907	16060
299.92	16070
299.92	16080
299.886	16090
299.883	16100
299.824	16110
299.829	16120
299.802	16130
299.795	16140
299.778	16150
299.751	16160
299.58	16170
299.631	16180
300.249	16190
300.797	16200
300.197	16210
299.524	16220
299.54	16230
299.761	16240
299.797	16250
299.841	16260
299.888	16270
299.863	16280
299.909	16290
299.947	16300
299.977	16310
299.983	16320
299.978	16330
299.981	16340
299.919	16350
299.88	16360
299.816	16370
299.845	16380
299.786	16390
299.79	16400
299.737	16410
299.751	16420
299.796	16430
299.789	16440
299.821	16450
299.77	16460
299.778	16470
299.825	16480
299.776	16490
299.789	16500
299.805	16510
299.768	16520
299.787	16530
299.783	16540
299.772	16550
299.813	16560
299.767	16570
299.778	16580
299.769	16590
299.743	16600
299.804	16610
299.766	16620
299.778	16630
299.775	16640
299.796	16650
299.754	16660
299.845	16670
299.794	16680
299.777	16690
299.782	16700
299.797	16710
299.816	16720
299.8	16730
299.809	16740
299.774	16750
299.774	16760
299.761	16770
299.784	16780
299.802	16790
299.775	16800
299.796	16810
299.77	16820
299.798	16830
299.818	16840
299.822	16850
299.901	16860
299.92	16870
299.931	16880
299.93	16890
299.863	16900
299.85	16910
299.832	16920
299.804	16930
299.778	16940
299.798	16950
299.777	16960
299.582	16970
299.614	16980
300.249	16990
300.78	17000
300.16	17010
299.517	17020
299.528	17030
299.732	17040
299.775	17050
299.846	17060
299.832	17070
299.873	17080
299.942	17090
299.907	17100
300.008	17110
300.011	17120
299.963	17130
299.939	17140
299.892	17150
299.873	17160
299.874	17170
299.852	17180
299.825	17190
299.818	17200
299.785	17210
299.773	17220
299.807	17230
299.796	17240
299.795	17250
299.771	17260
299.782	17270
299.797	17280
299.805	17290
299.716	17300
299.754	17310
299.786	17320
299.801	17330
299.773	17340
299.785	17350
299.762	17360
299.739	17370
299.776	17380
299.787	17390
299.791	17400
299.776	17410
299.815	17420
299.783	17430
299.774	17440
299.777	17450
299.81	17460
299.777	17470
299.756	17480
299.77	17490
299.781	17500
299.783	17510
299.764	17520
299.8	17530
299.784	17540
299.782	17550
299.805	17560
299.762	17570
299.799	17580
299.816	17590
299.797	17600
299.794	17610
299.792	17620
299.805	17630
299.847	17640
299.843	17650
299.861	17660
299.968	17670
299.933	17680
299.923	17690
299.892	17700
299.884	17710
299.814	17720
299.772	17730
299.784	17740
299.76	17750
299.739	17760
299.617	17770
299.572	17780
300.267	17790
300.798	17800
300.167	17810
299.522	17820
299.518	17830
299.701	17840
299.809	17850
299.8	17860
299.827	17870
299.886	17880
299.936	17890
299.959	17900
299.989	17910
300.0	17920
300.004	17930
300.01	17940
299.921	17950
299.885	17960
299.833	17970
299.779	17980
299.801	17990
299.786	18000
299.764	18010
299.801	18020
299.769	18030
299.754	18040
299.783	18050
299.784	18060
299.808	18070
299.769	18080
299.759	18090
299.807	18100
299.749	18110
299.792	18120
299.781	18130
299.778	18140
299.808	18150
299.787	18160
299.8	18170
299.81	18180
299.778	18190
299.786	18200
299.78	18210
299.773	18220
299.772	18230
299.776	18240
299.808	18250
299.752	18260
299.78	18270
299.79	18280
299.746	18290
299.77	18300
299.759	18310
299.773	18320
299.76	18330
299.782	18340
299.801	18350
299.751	18360
299.744	18370
299.772	18380
299.785	18390
299.812	18400
299.762	18410
299.743	18420
299.844	18430
299.875	18440
299.868	18450
299.902	18460
299.891	18470
299.949	18480
299.952	18490
299.891	18500
299.856	18510
299.814	18520
299.809	18530
299.766	18540
299.824	18550
299.77	18560
299.627	18570
299.623	18580
300.233	18590
300.815	18600
300.18	18610
299.523	18620
299.511	18630
299.741	18640
299.762	18650
299.804	18660
299.838	18670
299.879	18680
299.887	18690
299.947	18700
299.966	18710
299.975	18720
299.955	18730
299.941	18740
299.952	18750
299.869	18760
299.844	18770
299.821	18780
299.823	18790
299.776	18800
299.806	18810
299.762	18820
299.804	18830
299.759	18840
299.772	18850
299.806	18860
299.769	18870
299.806	18880
299.809	18890
299.781	18900
299.815	18910
299.787	18920
299.761	18930
299.762	18940
299.791	18950
299.834	18960
299.83	18970
299.8	18980
299.793	18990
299.825	19000
299.767	19010
299.732	19020
299.77	19030
299.772	19040
299.793	19050
299.8	19060
299.804	19070
299.803	19080
299.768	19090
299.794	19100
299.778	19110
299.772	19120
299.755	19130
299.762	19140
299.798	19150
299.772	19160
299.776	19170
299.749	19180
299.806	19190
299.765	19200
299.804	19210
299.816	19220
299.796	19230
299.8	19240
299.875	19250
299.873	19260
299.927	19270
299.966	19280
299.959	19290
299.878	19300
299.832	19310
299.865	19320
299.795	19330
299.798	19340
299.816	19350
299.775	19360
299.614	19370
299.585	19380
300.245	19390
300.815	19400
300.222	19410
299.534	19420
299.558	19430
299.797	19440
299.789	19450
299.845	19460
299.87	19470
299.877	19480
299.918	19490
299.973	19500
299.935	19510
299.97	19520
299.991	19530
299.964	19540
299.9	19550
299.874	19560
299.846	19570
299.824	19580
299.82	19590
299.816	19600
299.84	19610
299.792	19620
299.759	19630
299.767	19640
299.744	19650
299.783	19660
299.805	19670
299.814	19680
299.769	19690
299.784	19700
299.825	19710
299.794	19720
299.854	19730
299.83	19740
299.806	19750
299.802	19760
299.78	19770
299.784	19780
299.791	19790
299.803	19800
299.763	19810
299.803	19820
299.786	19830
299.803	19840
299.801	19850
299.786	19860
299.816	19870
299.759	19880
299.781	19890
299.77	19900
299.801	19910
299.804	19920
299.792	19930
299.779	19940
299.788	19950
299.781	19960
299.823	19970
299.799	19980
299.763	19990
299.835	20000
299.823	20010
299.803	20020
299.819	20030
299.795	20040
299.898	20050
299.911	20060
299.952	20070
299.977	20080
299.956	20090
299.926	20100
299.853	20110
299.85	20120
299.839	20130
299.821	20140
299.795	20150
299.771	20160
299.641	20170
299.682	20180
300.243	20190
300.774	20200
300.195	20210
299.533	20220
299.543	20230
299.739	20240
299.826	20250
299.829	20260
299.881	20270
299.869	20280
299.929	20290
299.941	20300
300.031	20310
300.007	20320
300.029	20330
299.93	20340
299.963	20350
299.879	20360
299.846	20370
299.842	20380
299.793	20390
299.789	20400
299.835	20410
299.789	20420
299.795	20430
299.785	20440
299.792	20450
299.829	20460
299.803	20470
299.82	20480
299.771	20490
299.843	20500
299.788	20510
299.787	20520
299.819	20530
299.79	20540
299.774	20550
299.808	20560
299.824	20570
299.779	20580
299.835	20590
299.785	20600
299.806	20610
299.807	20620
299.771	20630
299.839	20640
299.813	20650
299.827	20660
299.808	20670
299.792	20680
299.83	20690
299.807	20700
299.852	20710
299.824	20720
299.826	20730
299.824	20740
299.787	20750
299.834	20760
299.816	20770
299.796	20780
299.835	20790
299.812	20800
299.844	20810
299.835	20820
299.8	20830
299.867	20840
299.842	20850
299.945	20860
299.956	20870
300.006	20880
299.952	20890
299.887	20900
299.887	20910
299.848	20920
299.825	20930
299.796	20940
299.802	20950
299.763	20960
299.637	20970
299.678	20980
300.271	20990
300.827	21000
300.232	21010
299.564	21020
299.573	21030
299.776	21040
299.825	21050
299.881	21060
299.883	21070
299.88	21080
299.944	21090
299.983	21100
299.987	21110
300.02	21120
300.01	21130
299.987	21140
299.955	21150
299.881	21160
299.892	21170
299.821	21180
299.815	21190
299.813	21200
299.836	21210
299.811	21220
299.854	21230
299.774	21240
299.792	21250
299.859	21260
299.835	21270
299.788	21280
299.804	21290
299.79	21300
299.811	21310
299.836	21320
299.83	21330
299.826	21340
299.827	21350
299.819	21360
299.836	21370
299.819	21380
299.784	21390
299.801	21400
299.831	21410
299.827	21420
299.808	21430
299.794	21440
299.797	21450
299.793	21460
299.824	21470
299.856	21480
299.818	21490
299.835	21500
299.789	21510
299.842	21520
299.774	21530
299.82	21540
299.828	21550
299.816	21560
299.811	21570
299.794	21580
299.789	21590
299.824	21600
299.814	21610
299.845	21620
299.82	21630
299.867	21640
299.891	21650
299.912	21660
299.931	21670
299.956	21680
299.952	21690
299.934	21700
299.893	21710
299.863	21720
299.817	21730
299.806	21740
299.797	21750
299.797	21760
299.628	21770
299.651	21780
300.297	21790
300.855	21800
300.214	21810
299.553	21820
299.537	21830
299.781	21840
299.839	21850
299.861	21860
299.889	21870
299.902	21880
299.961	21890
299.965	21900
300.054	21910
299.982	21920
300.034	21930
299.992	21940
299.962	21950
299.888	21960
299.874	21970
299.85	21980
299.81	21990
299.852	22000
299.813	22010
299.828	22020
299.784	22030
299.782	22040
299.859	22050
299.846	22060
299.821	22070
299.793	22080
299.8	22090
299.842	22100
299.816	22110
299.813	22120
299.837	22130
299.831	22140
299.802	22150
299.853	22160
299.786	22170
299.873	22180
299.756	22190
299.787	22200
299.82	22210
299.81	22220
299.802	22230
299.828	22240
299.821	22250
299.778	22260
299.812	22270
299.845	22280
299.788	22290
299.795	22300
299.805	22310
299.835	22320
299.829	22330
299.82	22340
299.868	22350
299.817	22360
299.772	22370
299.848	22380
299.846	22390
299.817	22400
299.825	22410
299.786	22420
299.867	22430
299.842	22440
299.918	22450
299.932	22460
299.947	22470
299.968	22480
299.933	22490
299.905	22500
299.909	22510
299.868	22520
299.836	22530
299.802	22540
299.834	22550
299.826	22560
299.679	22570
299.641	22580
300.279	22590
300.837	22600
300.176	22610
299.559	22620
299.556	22630
299.766	22640
299.857	22650
299.877	22660
299.865	22670
299.922	22680
299.913	22690
299.975	22700
300.025	22710
300.064	22720
299.981	22730
299.999	22740
299.939	22750
299.929	22760
299.901	22770
299.846	22780
299.813	22790
299.816	22800
299.87	22810
299.817	22820
299.812	22830
299.824	22840
299.84	22850
299.829	22860
299.804	22870
299.832	22880
299.849	22890
299.838	22900
299.816	22910
299.8	22920
299.793	22930
299.829	22940
299.857	22950
299.802	22960
299.807	22970
299.849	22980
299.834	22990
299.829	23000
299.834	23010
299.81	23020
299.823	23030
299.833	23040
299.824	23050
299.869	23060
299.828	23070
299.846	23080
299.831	23090
299.817	23100
299.808	23110
299.75	23120
299.783	23130
299.788	23140
299.808	23150
299.826	23160
299.798	23170
299.825	23180
299.839	23190
299.789	23200
299.825	23210
299.775	23220
299.798	23230
299.865	23240
299.855	23250
299.922	23260
299.951	23270
299.982	23280
299.937	23290
299.919	23300
299.92	23310
299.849	23320
299.849	23330
299.781	23340
299.818	23350
299.819	23360
299.634	23370
299.659	23380
300.277	23390
300.84	23400
300.22	23410
299.541	23420
299.551	23430
299.73	23440
299.844	23450
299.878	23460
299.883	23470
299.886	23480
299.912	23490
299.954	23500
299.99	23510
300.003	23520
300.022	23530
300.004	23540
299.947	23550
299.917	23560
299.873	23570
299.87	23580
299.845	23590
299.804	23600
299.815	23610
299.803	23620
299.837	23630
299.83	23640
299.813	23650
299.801	23660
299.791	23670
299.855	23680
299.852	23690
299.806	23700
299.854	23710
299.832	23720
299.78	23730
299.83	23740
299.789	23750
299.801	23760
299.786	23770
299.807	23780
299.832	23790
299.743	23800
299.818	23810
299.823	23820
299.826	23830
299.831	23840
299.841	23850
299.787	23860
299.801	23870
299.831	23880
299.838	23890
299.826	23900
299.784	23910
299.808	23920
299.796	23930
299.81	23940
299.826	23950
299.783	23960
299.781	23970
299.822	23980
299.815	23990
299.763	24000
299.854	24010
299.798	24020
299.843	24030
299.855	24040
299.898	24050
299.923	24060
299.963	24070
299.981	24080
299.945	24090
299.897	24100
299.882	24110
299.834	24120
299.83	24130
299.807	24140
299.81	24150
299.806	24160
299.65	24170
299.63	24180
300.292	24190
300.845	24200
300.174	24210
299.527	24220
299.56	24230
299.758	24240
299.823	24250
299.856	24260
299.869	24270
299.916	24280
299.947	24290
299.99	24300
300.003	24310
300.052	24320
299.983	24330
299.95	24340
299.958	24350
299.91	24360
299.874	24370
299.857	24380
299.815	24390
299.806	24400
299.821	24410
299.804	24420
299.804	24430
299.837	24440
299.788	24450
299.806	24460
299.768	24470
299.796	24480
299.815	24490
299.798	24500
299.828	24510
299.818	24520
299.809	24530
299.789	24540
299.834	24550
299.781	24560
299.796	24570
299.822	24580
299.793	24590
299.806	24600
299.83	24610
299.786	24620
299.78	24630
299.806	24640
299.8	24650
299.834	24660
299.804	24670
299.821	24680
299.811	24690
299.806	24700
299.805	24710
299.768	24720
299.791	24730
299.831	24740
299.784	24750
299.822	24760
299.828	24770
299.769	24780
299.847	24790
299.809	24800
299.824	24810
299.819	24820
299.804	24830
299.846	24840
299.879	24850
299.914	24860
299.961	24870
299.966	24880
299.927	24890
299.937	24900
299.876	24910
299.824	24920
299.835	24930
299.793	24940
299.829	24950
299.794	24960
299.608	24970
299.613	24980
300.255	24990
300.813	25000
300.184	25010
299.529	25020
299.538	25030
299.71	25040
299.842	25050
299.86	25060
299.863	25070
299.912	25080
299.931	25090
299.977	25100
299.987	25110
300.016	25120
299.969	25130
299.934	25140
299.937	25150
299.891	25160
299.836	25170
299.815	25180
299.79	25190
299.826	25200
299.794	25210
299.801	25220
299.798	25230
299.794	25240
299.798	25250
299.793	25260
299.806	25270
299.827	25280
299.775	25290
299.82	25300
299.804	25310
299.796	25320
299.832	25330
299.747	25340
299.804	25350
299.815	25360
299.845	25370
299.822	25380
299.813	25390
299.778	25400
299.787	25410
299.794	25420
299.803	25430
299.835	25440
299.804	25450
299.781	25460
299.778	25470
299.792	25480
299.8	25490
299.803	25500
299.768	25510
299.789	25520
299.799	25530
299.793	25540
299.822	25550
299.799	25560
299.822	25570
299.813	25580
299.797	25590
299.791	25600
299.815	25610
299.822	25620
299.806	25630
299.84	25640
299.876	25650
299.907	25660
299.898	25670
299.961	25680
299.933	25690
299.882	25700
299.839	25710
299.809	25720
299.851	25730
299.833	25740
299.812	25750
299.753	25760
299.616	25770
299.587	25780
300.283	25790
300.795	25800
300.16	25810
299.522	25820
299.505	25830
299.77	25840
299.847	25850
299.852	25860
299.881	25870
299.904	25880
299.97	25890
299.944	25900
299.942	25910
299.979	25920
299.949	25930
299.927	25940
299.928	25950
299.903	25960
299.814	25970
299.825	25980
299.806	25990
299.791	26000
299.835	26010
299.815	26020
299.814	26030
299.747	26040
299.795	26050
299.773	26060
299.767	26070
299.791	26080
299.781	26090
299.786	26100
299.757	26110
299.806	26120
299.798	26130
299.776	26140
299.751	26150
299.788	26160
299.788	26170
299.763	26180
299.777	26190
299.783	26200
299.792	26210
299.758	26220
299.761	26230
299.784	26240
299.801	26250
299.799	26260
299.832	26270
299.799	26280
299.8	26290
299.791	26300
299.757	26310
299.796	26320
299.818	26330
299.768	26340
299.773	26350
299.812	26360
299.784	26370
299.763	26380
299.816	26390
299.825	26400
299.757	26410
299.804	26420
299.783	26430
299.828	26440
299.823	26450
299.902	26460
299.919	26470
299.906	26480
299.928	26490
299.869	26500
299.818	26510
299.852	26520
299.804	26530
299.795	26540
299.78	26550
299.773	26560
299.657	26570
299.589	26580
300.234	26590
300.785	26600
300.17	26610
299.536	26620
299.552	26630
299.748	26640
299.773	26650
299.801	26660
299.863	26670
299.844	26680
299.931	26690
299.968	26700
299.985	26710
300.015	26720
299.994	26730
299.925	26740
299.918	26750
299.911	26760
299.843	26770
299.819	26780
299.801	26790
299.793	26800
299.828	26810
299.785	26820
299.773	26830
299.784	26840
299.771	26850
299.755	26860
299.758	26870
299.755	26880
299.803	26890
299.729	26900
299.794	26910
299.784	26920
299.789	26930
299.764	26940
299.704	26950
299.769	26960
299.774	26970
299.793	26980
299.756	26990
299.734	27000
299.811	27010
299.804	27020
299.814	27030
299.793	27040
299.794	27050
299.726	27060
299.81	27070
299.797	27080
299.75	27090
299.784	27100
299.795	27110
299.8	27120
299.796	27130
299.727	27140
299.769	27150
299.758	27160
299.784	27170
299.78	27180
299.778	27190
299.795	27200
299.777	27210
299.834	27220
299.76	27230
299.785	27240
299.839	27250
299.904	27260
299.889	27270
299.952	27280
299.915	27290
299.887	27300
299.826	27310
299.797	27320
299.815	27330
299.809	27340
299.806	27350
299.757	27360
299.6	27370
299.628	27380
300.239	27390
300.747	27400
300.168	27410
299.49	27420
299.516	27430
299.768	27440
299.795	27450
299.796	27460
299.837	27470
299.901	27480
299.927	27490
299.964	27500
299.978	27510
300.039	27520
299.967	27530
299.946	27540
299.897	27550
299.886	27560
299.834	27570
299.804	27580
299.797	27590
299.767	27600
299.759	27610
299.812	27620
299.798	27630
299.755	27640
299.786	27650
299.778	27660
299.771	27670
299.794	27680
299.78	27690
299.799	27700
299.766	27710
299.763	27720
299.807	27730
299.759	27740
299.772	27750
299.786	27760
299.812	27770
299.759	27780
299.77	27790
299.794	27800
299.759	27810
299.801	27820
299.738	27830
299.785	27840
299.713	27850
299.782	27860
299.774	27870
299.801	27880
299.821	27890
299.759	27900
299.795	27910
299.811	27920
299.776	27930
299.779	27940
299.77	27950
299.771	27960
299.773	27970
299.753	27980
299.77	27990
299.761	28000
299.792	28010
299.817	28020
299.799	28030
299.845	28040
299.844	28050
299.89	28060
299.941	28070
299.892	28080
299.94	28090
299.921	28100
299.83	28110
299.884	28120
299.783	28130
299.767	28140
299.747	28150
299.75	28160
299.606	28170
299.622	28180
300.252	28190
300.792	28200
300.153	28210
299.469	28220
299.496	28230
299.742	28240
299.794	28250
299.864	28260
299.858	28270
299.879	28280
299.883	28290
299.951	28300
299.959	28310
300.0	28320
299.987	28330
299.909	28340
299.899	28350
299.878	28360
299.805	28370
299.833	28380
299.796	28390
299.776	28400
299.772	28410
299.769	28420
299.772	28430
299.735	28440
299.796	28450
299.821	28460
299.82	28470
299.822	28480
299.806	28490
299.753	28500
299.749	28510
299.793	28520
299.795	28530
299.81	28540
299.771	28550
299.76	28560
299.813	28570
299.863	28580
299.76	28590
299.775	28600
299.779	28610
299.749	28620
299.783	28630
299.81	28640
299.801	28650
299.764	28660
299.798	28670
299.78	28680
299.809	28690
299.733	28700
299.775	28710
299.799	28720
299.794	28730
299.787	28740
299.791	28750
299.801	28760
299.815	28770
299.79	28780
299.79	28790
299.8	28800
299.78	28810
299.809	28820
299.785	28830
299.825	28840
299.861	28850
299.896	28860
299.943	28870
299.921	28880
299.939	28890
299.89	28900
299.82	28910
299.81	28920
299.795	28930
299.786	28940
299.822	28950
299.805	28960
299.628	28970
299.632	28980
300.243	28990
300.824	29000
300.176	29010
299.502	29020
299.531	29030
299.751	29040
299.834	29050
299.816	29060
299.839	29070
299.897	29080
299.897	29090
299.938	29100
299.985	29110
300.013	29120
299.973	29130
299.939	29140
299.925	29150
299.911	29160
299.846	29170
299.824	29180
299.811	29190
299.787	29200
299.775	29210
299.803	29220
299.77	29230
299.749	29240
299.787	29250
299.798	29260
299.793	29270
299.769	29280
299.804	29290
299.797	29300
299.813	29310
299.805	29320
299.82	29330
299.78	29340
299.82	29350
299.788	29360
299.803	29370
299.814	29380
299.758	29390
299.837	29400
299.798	29410
299.793	29420
299.784	29430
299.787	29440
299.806	29450
299.832	29460
299.767	29470
299.814	29480
299.824	29490
299.793	29500
299.768	29510
299.783	29520
299.809	29530
299.757	29540
299.778	29550
299.783	29560
299.797	29570
299.795	29580
299.784	29590
299.769	29600
299.82	29610
299.827	29620
299.808	29630
299.83	29640
299.843	29650
299.873	29660
299.89	29670
299.924	29680
299.946	29690
299.91	29700
299.881	29710
299.82	29720
299.829	29730
299.804	29740
299.818	29750
299.78	29760
299.613	29770
299.623	29780
300.224	29790
300.847	29800
300.175	29810
299.517	29820
299.51	29830
299.774	29840
299.837	29850
299.819	29860
299.872	29870
299.889	29880
299.915	29890
299.942	29900
299.986	29910
300.002	29920
299.987	29930
299.964	29940
299.934	29950
299.923	29960
299.894	29970
299.862	29980
299.816	29990
299.819	30000
299.803	30010
299.79	30020
299.822	30030
299.816	30040
299.815	30050
299.81	30060
299.791	30070
299.813	30080
299.815	30090
299.79	30100
299.801	30110
299.81	30120
299.793	30130
299.785	30140
299.808	30150
299.846	30160
299.805	30170
299.805	30180
299.763	30190
299.816	30200
299.839	30210
299.794	30220
299.798	30230
299.837	30240
299.813	30250
299.803	30260
299.828	30270
299.772	30280
299.771	30290
299.833	30300
299.806	30310
299.788	30320
299.79	30330
299.802	30340
299.791	30350
299.836	30360
299.85	30370
299.788	30380
299.786	30390
299.82	30400
299.814	30410
299.783	30420
299.805	30430
299.845	30440
299.896	30450
299.929	30460
299.957	30470
299.998	30480
299.943	30490
299.86	30500
299.897	30510
299.828	30520
299.837	30530
299.838	30540
299.819	30550
299.779	30560
299.682	30570
299.63	30580
300.238	30590
300.808	30600
300.212	30610
299.569	30620
299.528	30630
299.762	30640
299.848	30650
299.875	30660
299.894	30670
299.891	30680
299.962	30690
299.964	30700
300.007	30710
299.983	30720
300.009	30730
299.975	30740
299.937	30750
299.885	30760
299.884	30770
299.842	30780
299.798	30790
299.8	30800
299.848	30810
299.791	30820
299.813	30830
299.808	30840
299.798	30850
299.802	30860
299.817	30870
299.775	30880
299.802	30890
299.803	30900
299.808	30910
299.848	30920
299.782	30930
299.795	30940
299.781	30950
299.795	30960
299.856	30970
299.803	30980
299.796	30990
299.84	31000
299.83	31010
299.814	31020
299.795	31030
299.8	31040
299.824	31050
299.798	31060
299.808	31070
299.834	31080
299.811	31090
299.816	31100
299.788	31110
299.823	31120
299.798	31130
299.797	31140
299.819	31150
299.783	31160
299.853	31170
299.766	31180
299.799	31190
299.791	31200
299.839	31210
299.845	31220
299.832	31230
299.85	31240
299.881	31250
299.929	31260
299.966	31270
299.928	31280
299.932	31290
299.924	31300
299.848	31310
299.826	31320
299.794	31330
299.809	31340
299.809	31350
299.82	31360
299.691	31370
299.64	31380
300.259	31390
300.813	31400
300.198	31410
299.576	31420
299.55	31430
299.777	31440
299.828	31450
299.845	31460
299.875	31470
299.884	31480
299.961	31490
299.969	31500
300.029	31510
300.0	31520
299.982	31530
299.96	31540
299.951	31550
299.896	31560
299.904	31570
299.825	31580
299.816	31590
299.812	31600
299.783	31610
299.843	31620
299.793	31630
299.809	31640
299.791	31650
299.822	31660
299.818	31670
299.821	31680
299.811	31690
299.802	31700
299.863	31710
299.861	31720
299.787	31730
299.796	31740
299.832	31750
299.838	31760
299.841	31770
299.879	31780
299.82	31790
299.815	31800
299.824	31810
299.827	31820
299.828	31830
299.825	31840
299.818	31850
299.823	31860
299.843	31870
299.822	31880
299.837	31890
299.795	31900
299.805	31910
299.866	31920
299.827	31930
299.813	31940
299.834	31950
299.808	31960
299.865	31970
299.839	31980
299.788	31990
299.82	32000
299.831	32010
299.823	32020
299.847	32030
299.861	32040
299.87	32050
299.934	32060
299.948	32070
299.934	32080
299.957	32090
299.894	32100
299.924	32110
299.841	32120
299.85	32130
299.838	32140
299.821	32150
299.822	32160
299.633	32170
299.662	32180
300.258	32190
300.831	32200
300.225	32210
299.527	32220
299.542	32230
299.804	32240
299.858	32250
299.86	32260
299.882	32270
299.906	32280
299.943	32290
299.98	32300
300.015	32310
299.989	32320
299.991	32330
299.982	32340
299.958	32350
299.888	32360
299.893	32370
299.868	32380
299.845	32390
299.813	32400
299.813	32410
299.831	32420
299.847	32430
299.827	32440
299.841	32450
299.803	32460
299.835	32470
299.816	32480
299.824	32490
299.819	32500
299.809	32510
299.778	32520
299.814	32530
299.844	32540
299.823	32550
299.849	32560
299.807	32570
299.797	32580
299.829	32590
299.816	32600
299.83	32610
299.815	32620
299.835	32630
299.794	32640
299.819	32650
299.858	32660
299.796	32670
299.825	32680
299.832	32690
299.839	32700
299.808	32710
299.817	32720
299.831	32730
299.848	32740
299.814	32750
299.835	32760
299.79	32770
299.812	32780
299.795	32790
299.82	32800
299.793	32810
299.793	32820
299.855	32830
299.847	32840
299.928	32850
299.906	32860
299.961	32870
299.962	32880
299.953	32890
299.94	32900
299.908	32910
299.874	32920
299.816	32930
299.837	32940
299.843	32950
299.791	32960
299.677	32970
299.643	32980
300.236	32990
300.851	33000
300.21	33010
299.558	33020
299.565	33030
299.774	33040
299.865	33050
299.861	33060
299.895	33070
299.94	33080
299.963	33090
299.956	33100
300.035	33110
300.015	33120
300.046	33130
300.014	33140
299.96	33150
299.916	33160
299.913	33170
299.894	33180
299.841	33190
299.853	33200
299.803	33210
299.851	33220
299.817	33230
299.781	33240
299.841	33250
299.806	33260
299.838	33270
299.81	33280
299.792	33290
299.846	33300
299.787	33310
299.775	33320
299.851	33330
299.788	33340
299.82	33350
299.817	33360
299.813	33370
299.824	33380
299.814	33390
299.861	33400
299.819	33410
299.821	33420
299.848	33430
299.792	33440
299.806	33450
299.798	33460
299.774	33470
299.792	33480
299.826	33490
299.816	33500
299.85	33510
299.839	33520
299.811	33530
299.79	33540
299.818	33550
299.855	33560
299.819	33570
299.821	33580
299.779	33590
299.799	33600
299.825	33610
299.842	33620
299.833	33630
299.848	33640
299.859	33650
299.895	33660
299.938	33670
299.985	33680
299.927	33690
299.917	33700
299.908	33710
299.867	33720
299.813	33730
299.766	33740
299.771	33750
299.799	33760
299.664	33770
299.578	33780
300.268	33790
300.798	33800
300.223	33810
299.503	33820
299.553	33830
299.775	33840
299.805	33850
299.833	33860
299.837	33870
299.907	33880
299.955	33890
299.989	33900
299.965	33910
300.035	33920
300.02	33930
299.971	33940
299.96	33950
299.936	33960
299.849	33970
299.868	33980
299.819	33990
299.858	34000
299.783	34010
299.824	34020
299.802	34030
299.796	34040
299.804	34050
299.82	34060
299.827	34070
299.807	34080
299.802	34090
299.793	34100
299.844	34110
299.778	34120
299.802	34130
299.812	34140
299.807	34150
299.815	34160
299.819	34170
299.81	34180
299.768	34190
299.808	34200
299.803	34210
299.809	34220
299.817	34230
299.837	34240
299.837	34250
299.791	34260
299.805	34270
299.797	34280
299.751	34290
299.789	34300
299.814	34310
299.788	34320
299.785	34330
299.83	34340
299.837	34350
299.809	34360
299.803	34370
299.765	34380
299.827	34390
299.774	34400
299.786	34410
299.781	34420
299.799	34430
299.858	34440
299.852	34450
299.949	34460
299.95	34470
299.922	34480
299.97	34490
299.924	34500
299.861	34510
299.83	34520
299.799	34530
299.82	34540
299.775	34550
299.79	34560
299.642	34570
299.604	34580
300.216	34590
300.776	34600
300.203	34610
299.556	34620
299.53	34630
299.771	34640
299.857	34650
299.844	34660
299.839	34670
299.911	34680
299.937	34690
299.967	34700
299.985	34710
300.02	34720
299.965	34730
299.979	34740
299.964	34750
299.887	34760
299.81	34770
299.834	34780
299.85	34790
299.816	34800
299.805	34810
299.807	34820
299.807	34830
299.819	34840
299.83	34850
299.787	34860
299.835	34870
299.731	34880
299.794	34890
299.784	34900
299.802	34910
299.775	34920
299.824	34930
299.749	34940
299.803	34950
299.809	34960
299.811	34970
299.798	34980
299.811	34990
299.779	35000
299.813	35010
299.821	35020
299.822	35030
299.824	35040
299.788	35050
299.769	35060
299.804	35070
299.794	35080
299.787	35090
299.825	35100
299.823	35110
299.804	35120
299.801	35130
299.769	35140
299.813	35150
299.819	35160
299.755	35170
299.807	35180
299.781	35190
299.805	35200
299.783	35210
299.841	35220
299.812	35230
299.789	35240
299.888	35250
299.879	35260
299.959	35270
299.951	35280
299.937	35290
299.928	35300
299.857	35310
299.827	35320
299.803	35330
299.838	35340
299.804	35350
299.766	35360
299.644	35370
299.634	35380
300.211	35390
300.799	35400
300.171	35410
299.531	35420
299.537	35430
299.744	35440
299.777	35450
299.82	35460
299.845	35470
299.894	35480
299.947	35490
299.986	35500
299.958	35510
299.996	35520
300.002	35530
299.998	35540
299.936	35550
299.916	35560
299.86	35570
299.837	35580
299.819	35590
299.801	35600
299.813	35610
299.771	35620
299.792	35630
299.785	35640
299.787	35650
299.815	35660
299.808	35670
299.805	35680
299.801	35690
299.805	35700
299.8	35710
299.77	35720
299.787	35730
299.791	35740
299.794	35750
299.805	35760
299.798	35770
299.805	35780
299.794	35790
299.808	35800
299.823	35810
299.81	35820
299.77	35830
299.775	35840
299.784	35850
299.808	35860
299.82	35870
299.769	35880
299.787	35890
299.807	35900
299.802	35910
299.792	35920
299.799	35930
299.804	35940
299.787	35950
299.792	35960
299.796	35970
299.78	35980
299.791	35990
299.779	36000
299.799	36010
299.777	36020
299.786	36030
299.823	36040
299.847	36050
299.881	36060
299.95	36070
299.956	36080
299.929	36090
299.883	36100
299.866	36110
299.807	36120
299.802	36130
299.818	36140
299.775	36150
299.772	36160
299.578	36170
299.614	36180
300.225	36190
300.825	36200
300.202	36210
299.492	36220
299.549	36230
299.723	36240
299.816	36250
299.818	36260
299.852	36270
299.862	36280
299.908	36290
299.922	36300
300.033	36310
300.009	36320
299.984	36330
299.939	36340
299.922	36350
299.848	36360
299.849	36370
299.817	36380
299.831	36390
299.772	36400
299.741	36410
299.794	36420
299.77	36430
299.766	36440
299.84	36450
299.731	36460
299.793	36470
299.724	36480
299.792	36490
299.809	36500
299.813	36510
299.833	36520
299.772	36530
299.801	36540
299.771	36550
299.772	36560
299.807	36570
299.768	36580
299.772	36590
299.815	36600
299.722	36610
299.771	36620
299.766	36630
299.784	36640
299.746	36650
299.775	36660
299.79	36670
299.791	36680
299.796	36690
299.769	36700
299.796	36710
299.769	36720
299.771	36730
299.737	36740
299.8	36750
299.805	36760
299.745	36770
299.742	36780
299.799	36790
299.763	36800
299.762	36810
299.77	36820
299.795	36830
299.813	36840
299.846	36850
299.879	36860
299.931	36870
299.942	36880
299.938	36890
299.915	36900
299.815	36910
299.855	36920
299.776	36930
299.764	36940
299.796	36950
299.741	36960
299.601	36970
299.638	36980
300.202	36990
300.771	37000
300.191	37010
299.474	37020
299.494	37030
299.731	37040
299.792	37050
299.803	37060
299.911	37070
299.892	37080
299.899	37090
299.95	37100
299.965	37110
299.973	37120
299.959	37130
299.976	37140
299.916	37150
299.855	37160
299.836	37170
299.822	37180
299.786	37190
299.762	37200
299.772	37210
299.747	37220
299.801	37230
299.773	37240
299.819	37250
299.783	37260
299.768	37270
299.784	37280
299.794	37290
299.782	37300
299.754	37310
299.782	37320
299.773	37330
299.802	37340
299.765	37350
299.794	37360
299.768	37370
299.794	37380
299.812	37390
299.788	37400
299.824	37410
299.789	37420
299.782	37430
299.753	37440
299.774	37450
299.778	37460
299.796	37470
299.759	37480
299.771	37490
299.775	37500
299.805	37510
299.791	37520
299.792	37530
299.786	37540
299.759	37550
299.797	37560
299.819	37570
299.762	37580
299.774	37590
299.79	37600
299.787	37610
299.781	37620
299.827	37630
299.812	37640
299.856	37650
299.863	37660
299.941	37670
299.964	37680
299.915	37690
299.913	37700
299.847	37710
299.842	37720
299.774	37730
299.752	37740
299.749	37750
299.764	37760
299.62	37770
299.628	37780
300.214	37790
300.794	37800
300.207	37810
299.503	37820
299.552	37830
299.767	37840
299.786	37850
299.824	37860
299.892	37870
299.877	37880
299.867	37890
299.947	37900
299.959	37910
299.95	37920
300.015	37930
299.962	37940
299.898	37950
299.872	37960
299.83	37970
299.81	37980
299.804	37990
299.8	38000
299.794	38010
299.769	38020
299.765	38030
299.775	38040
299.761	38050
299.826	38060
299.778	38070
299.794	38080
299.766	38090
299.764	38100
299.76	38110
299.757	38120
299.81	38130
299.794	38140
299.754	38150
299.827	38160
299.824	38170
299.813	38180
299.762	38190
299.765	38200
299.761	38210
299.777	38220
299.736	38230
299.793	38240
299.779	38250
299.74	38260
299.769	38270
299.799	38280
299.768	38290
299.777	38300
299.779	38310
299.758	38320
299.755	38330
299.765	38340
299.78	38350
299.792	38360
299.784	38370
299.765	38380
299.819	38390
299.803	38400
299.779	38410
299.799	38420
299.783	38430
299.83	38440
299.857	38450
299.883	38460
299.94	38470
299.92	38480
299.939	38490
299.862	38500
299.855	38510
299.856	38520
299.774	38530
299.768	38540
299.74	38550
299.77	38560
299.606	38570
299.642	38580
300.209	38590
300.78	38600
300.153	38610
299.538	38620
299.513	38630
299.733	38640
299.832	38650
299.843	38660
299.814	38670
299.892	38680
299.968	38690
299.957	38700
299.989	38710
300.015	38720
299.96	38730
299.974	38740
299.918	38750
299.835	38760
299.831	38770
299.828	38780
299.787	38790
299.786	38800
299.799	38810
299.818	38820
299.786	38830
299.808	38840
299.763	38850
299.803	38860
299.761	38870
299.762	38880
299.78	38890
299.797	38900
299.777	38910
299.769	38920
299.807	38930
299.77	38940
299.752	38950
299.783	38960
299.784	38970
299.762	38980
299.758	38990
299.781	39000
299.77	39010
299.823	39020
299.801	39030
299.85	39040
299.81	39050
299.811	39060
299.809	39070
299.782	39080
299.83	39090
299.787	39100
299.795	39110
299.792	39120
299.782	39130
299.796	39140
299.791	39150
299.801	39160
299.826	39170
299.742	39180
299.799	39190
299.798	39200
299.813	39210
299.811	39220
299.825	39230
299.845	39240
299.908	39250
299.912	39260
299.953	39270
299.901	39280
299.955	39290
299.948	39300
299.841	39310
299.803	39320
299.832	39330
299.827	39340
299.789	39350
299.809	39360
299.616	39370
299.636	39380
300.233	39390
300.814	39400
300.165	39410
299.531	39420
299.543	39430
299.74	39440
299.844	39450
299.781	39460
299.86	39470
299.869	39480
299.915	39490
299.969	39500
299.983	39510
299.981	39520
300.021	39530
299.945	39540
299.939	39550
299.907	39560
299.825	39570
299.822	39580
299.865	39590
299.796	39600
299.786	39610
299.788	39620
299.776	39630
299.768	39640
299.774	39650
299.804	39660
299.79	39670
299.826	39680
299.814	39690
299.768	39700
299.769	39710
299.819	39720
299.79	39730
299.755	39740
299.793	39750
299.766	39760
299.802	39770
299.817	39780
299.833	39790
299.803	39800
299.814	39810
299.809	39820
299.784	39830
299.801	39840
299.771	39850
299.819	39860
299.791	39870
299.793	39880
299.81	39890
299.766	39900
299.804	39910
299.815	39920
299.761	39930
299.789	39940
299.796	39950
299.765	39960
299.806	39970
299.77	39980
299.807	39990
299.84	40000
299.805	40010
299.808	40020
299.834	40030
299.867	40040
299.865	40050
299.912	40060
299.938	40070
299.934	40080
299.941	40090
299.939	40100
299.885	40110
299.855	40120
299.822	40130
299.781	40140
299.814	40150
299.762	40160
299.629	40170
299.652	40180
300.214	40190
300.839	40200
300.2	40210
299.526	40220
299.54	40230
299.757	40240
299.855	40250
299.849	40260
299.855	40270
299.867	40280
299.955	40290
299.997	40300
300.008	40310
299.968	40320
300.019	40330
300.005	40340
299.934	40350
299.913	40360
299.881	40370
299.885	40380
299.809	40390
299.812	40400
299.801	40410
299.823	40420
299.809	40430
299.851	40440
299.794	40450
299.783	40460
299.804	40470
299.835	40480
299.84	40490
299.795	40500
299.841	40510
299.825	40520
299.791	40530
299.832	40540
299.817	40550
299.79	40560
299.809	40570
299.788	40580
299.836	40590
299.796	40600
299.785	40610
299.815	40620
299.807	40630
299.881	40640
299.827	40650
299.788	40660
299.781	40670
299.817	40680
299.745	40690
299.779	40700
299.814	40710
299.828	40720
299.807	40730
299.834	40740
299.807	40750
299.798	40760
299.802	40770
299.792	40780
299.807	40790
299.83	40800
299.822	40810
299.814	40820
299.832	40830
299.874	40840
299.884	40850
299.895	40860
299.938	40870
299.957	40880
299.954	40890
299.91	40900
299.863	40910
299.875	40920
299.825	40930
299.822	40940
299.842	40950
299.83	40960
299.645	40970
299.632	40980
300.213	40990
300.85	41000
300.173	41010
299.557	41020
299.545	41030
299.834	41040
299.84	41050
299.826	41060
299.874	41070
299.867	41080
299.961	41090
299.983	41100
299.998	41110
300.03	41120
300.048	41130
299.997	41140
299.947	41150
299.906	41160
299.88	41170
299.827	41180
299.83	41190
299.808	41200
299.862	41210
299.821	41220
299.826	41230
299.828	41240
299.799	41250
299.822	41260
299.838	41270
299.803	41280
299.807	41290
299.783	41300
299.779	41310
299.836	41320
299.821	41330
299.822	41340
299.827	41350
299.819	41360
299.831	41370
299.813	41380
299.846	41390
299.814	41400
299.862	41410
299.832	41420
299.816	41430
299.785	41440
299.846	41450
299.808	41460
299.788	41470
299.834	41480
299.808	41490
299.817	41500
299.812	41510
299.823	41520
299.826	41530
299.812	41540
299.835	41550
299.815	41560
299.801	41570
299.826	41580
299.837	41590
299.794	41600
299.824	41610
299.799	41620
299.813	41630
299.85	41640
299.891	41650
299.963	41660
299.961	41670
299.995	41680
299.926	41690
299.94	41700
299.939	41710
299.84	41720
299.853	41730
299.84	41740
299.791	41750
299.84	41760
299.699	41770
299.667	41780
300.271	41790
300.871	41800
300.19	41810
299.567	41820
299.553	41830
299.775	41840
299.843	41850
299.832	41860
299.888	41870
299.935	41880
299.937	41890
299.996	41900
300.022	41910
300.019	41920
300.027	41930
299.985	41940
299.953	41950
299.925	41960
299.869	41970
299.87	41980
299.86	41990
299.83	42000
299.841	42010
299.839	42020
299.814	42030
299.819	42040
299.821	42050
299.843	42060
299.841	42070
299.841	42080
299.86	42090
299.812	42100
299.833	42110
299.822	42120
299.85	42130
299.818	42140
299.823	42150
299.824	42160
299.793	42170
299.821	42180
299.774	42190
299.794	42200
299.834	42210
299.829	42220
299.806	42230
299.805	42240
299.816	42250
299.852	42260
299.859	42270
299.814	42280
299.845	42290
299.823	42300
299.824	42310
299.835	42320
299.858	42330
299.799	42340
299.838	42350
299.828	42360
299.789	42370
299.842	42380
299.777	42390
299.792	42400
299.827	42410
299.839	42420
299.822	42430
299.857	42440
299.903	42450
299.919	42460
299.94	42470
299.975	42480
299.964	42490
299.931	42500
299.842	42510
299.851	42520
299.8	42530
299.815	42540
299.811	42550
299.745	42560
299.668	42570
299.666	42580
300.276	42590
300.82	42600
300.188	42610
299.565	42620
299.531	42630
299.772	42640
299.813	42650
299.854	42660
299.863	42670
299.925	42680
299.9	42690
299.935	42700
299.995	42710
299.991	42720
299.97	42730
299.989	42740
299.933	42750
299.945	42760
299.88	42770
299.856	42780
299.832	42790
299.835	42800
299.872	42810
299.873	42820
299.848	42830
299.835	42840
299.847	42850
299.796	42860
299.807	42870
299.805	42880
299.802	42890
299.787	42900
299.806	42910
299.785	42920
299.82	42930
299.806	42940
299.809	42950
299.783	42960
299.883	42970
299.841	42980
299.812	42990
299.875	43000
299.796	43010
299.819	43020
299.831	43030
299.839	43040
299.81	43050
299.808	43060
299.86	43070
299.783	43080
299.818	43090
299.852	43100
299.846	43110
299.795	43120
299.816	43130
299.797	43140
299.863	43150
299.864	43160
299.838	43170
299.833	43180
299.849	43190
299.866	43200
299.844	43210
299.795	43220
299.809	43230
299.886	43240
299.887	43250
299.886	43260
299.947	43270
299.971	43280
299.987	43290
299.916	43300
299.86	43310
299.839	43320
299.809	43330
299.83	43340
299.856	43350
299.817	43360
299.592	43370
299.691	43380
300.231	43390
300.849	43400
300.229	43410
299.547	43420
299.533	43430
299.759	43440
299.864	43450
299.812	43460
299.859	43470
299.946	43480
299.961	43490
299.981	43500
299.999	43510
300.009	43520
300.017	43530
299.984	43540
299.97	43550
299.888	43560
299.9	43570
299.844	43580
299.833	43590
299.859	43600
299.825	43610
299.79	43620
299.806	43630
299.838	43640
299.825	43650
299.759	43660
299.821	43670
299.812	43680
299.848	43690
299.843	43700
299.819	43710
299.789	43720
299.831	43730
299.813	43740
299.778	43750
299.813	43760
299.827	43770
299.804	43780
299.838	43790
299.82	43800
299.839	43810
299.798	43820
299.795	43830
299.827	43840
299.795	43850
299.808	43860
299.834	43870
299.775	43880
299.824	43890
299.808	43900
299.811	43910
299.789	43920
299.771	43930
299.81	43940
299.779	43950
299.833	43960
299.816	43970
299.84	43980
299.801	43990
299.796	44000
299.845	44010
299.831	44020
299.769	44030
299.84	44040
299.872	44050
299.933	44060
299.962	44070
299.963	44080
299.951	44090
299.902	44100
299.862	44110
299.835	44120
299.811	44130
299.798	44140
299.799	44150
299.778	44160
299.686	44170
299.639	44180
300.229	44190
300.842	44200
300.228	44210
299.538	44220
299.53	44230
299.754	44240
299.821	44250
299.854	44260
299.852	44270
299.842	44280
299.96	44290
299.997	44300
300.0	44310
300.041	44320
299.998	44330
300.04	44340
299.93	44350
299.886	44360
299.832	44370
299.848	44380
299.831	44390
299.831	44400
299.829	44410
299.839	44420
299.797	44430
299.837	44440
299.817	44450
299.856	44460
299.786	44470
299.781	44480
299.834	44490
299.807	44500
299.808	44510
299.819	44520
299.805	44530
299.793	44540
299.8	44550
299.783	44560
299.802	44570
299.789	44580
299.773	44590
299.816	44600
299.845	44610
299.836	44620
299.803	44630
299.824	44640
299.742	44650
299.834	44660
299.808	44670
299.808	44680
299.815	44690
299.77	44700
299.763	44710
299.834	44720
299.815	44730
299.771	44740
299.818	44750
299.811	44760
299.821	44770
299.764	44780
299.811	44790
299.756	44800
299.8	44810
299.833	44820
299.848	44830
299.828	44840
299.885	44850
299.951	44860
299.941	44870
299.977	44880
299.934	44890
299.903	44900
299.875	44910
299.84	44920
299.845	44930
299.797	44940
299.801	44950
299.803	44960
299.585	44970
299.582	44980
300.239	44990
300.83	45000
300.224	45010
299.5	45020
299.535	45030
299.772	45040
299.857	45050
299.835	45060
299.908	45070
299.878	45080
299.915	45090
299.97	45100
300.011	45110
300.005	45120
300.011	45130
299.976	45140
299.929	45150
299.912	45160
299.88	45170
299.832	45180
299.817	45190
299.813	45200
299.844	45210
299.785	45220
299.757	45230
299.819	45240
299.776	45250
299.818	45260
299.781	45270
299.8	45280
299.802	45290
299.787	45300
299.812	45310
299.825	45320
299.777	45330
299.782	45340
299.813	45350
299.843	45360
299.814	45370
299.803	45380
299.78	45390
299.826	45400
299.765	45410
299.796	45420
299.804	45430
299.791	45440
299.816	45450
299.818	45460
299.807	45470
299.794	45480
299.787	45490
299.756	45500
299.734	45510
299.812	45520
299.77	45530
299.772	45540
299.771	45550
299.791	45560
299.757	45570
299.751	45580
299.785	45590
299.831	45600
299.82	45610
299.785	45620
299.794	45630
299.809	45640
299.843	45650
299.876	45660
299.943	45670
299.932	45680
299.964	45690
299.956	45700
299.84	45710
299.85	45720
299.797	45730
299.764	45740
299.79	45750
299.758	45760
299.629	45770
299.624	45780
300.28	45790
300.82	45800
300.175	45810
299.532	45820
299.55	45830
299.733	45840
299.814	45850
299.84	45860
299.864	45870
299.852	45880
299.916	45890
299.966	45900
300.014	45910
300.0	45920
300.019	45930
299.946	45940
299.917	45950
299.86	45960
299.816	45970
299.825	45980
299.798	45990
299.839	46000
299.787	46010
299.794	46020
299.741	46030
299.753	46040
299.819	46050
299.794	46060
299.832	46070
299.728	46080
299.801	46090
299.773	46100
299.827	46110
299.8	46120
299.774	46130
299.82	46140
299.819	46150
299.764	46160
299.771	46170
299.729	46180
299.806	46190
299.814	46200
299.756	46210
299.783	46220
299.778	46230
299.771	46240
299.747	46250
299.812	46260
299.804	46270
299.811	46280
299.826	46290
299.779	46300
299.776	46310
299.776	46320
299.739	46330
299.781	46340
299.772	46350
299.782	46360
299.776	46370
299.791	46380
299.828	46390
299.779	46400
299.759	46410
299.789	46420
299.804	46430
299.811	46440
299.881	46450
299.888	46460
299.913	46470
299.935	46480
299.944	46490
299.876	46500
299.85	46510
299.882	46520
299.792	46530
299.776	46540
299.775	46550
299.792	46560
299.603	46570
299.649	46580
300.212	46590
300.75	46600
300.17	46610
299.501	46620
299.547	46630
299.736	46640
299.806	46650
299.804	46660
299.82	46670
299.881	46680
299.935	46690
299.935	46700
300.013	46710
299.985	46720
299.969	46730
299.977	46740
299.902	46750
299.891	46760
299.802	46770
299.817	46780
299.815	46790
299.774	46800
299.793	46810
299.782	46820
299.793	46830
299.764	46840
299.779	46850
299.769	46860
299.76	46870
299.762	46880
299.763	46890
299.728	46900
299.767	46910
299.775	46920
299.801	46930
299.783	46940
299.768	46950
299.757	46960
299.794	46970
299.773	46980
299.798	46990
299.805	47000
299.778	47010
299.805	47020
299.782	47030
299.741	47040
299.787	47050
299.772	47060
299.741	47070
299.759	47080
299.789	47090
299.764	47100
299.771	47110
299.767	47120
299.814	47130
299.799	47140
299.834	47150
299.743	47160
299.833	47170
299.752	47180
299.798	47190
299.766	47200
299.767	47210
299.793	47220
299.815	47230
299.808	47240
299.854	47250
299.875	47260
299.928	47270
299.906	47280
299.924	47290
299.907	47300
299.861	47310
299.806	47320
299.784	47330
299.763	47340
299.791	47350
299.764	47360
299.616	47370
299.629	47380
300.233	47390
300.785	47400
300.18	47410
299.51	47420
299.515	47430
299.768	47440
299.754	47450
299.784	47460
299.84	47470
299.819	47480
299.875	47490
299.954	47500
299.962	47510
299.984	47520
299.923	47530
299.914	47540
299.944	47550
299.904	47560
299.85	47570
299.784	47580
299.797	47590
299.795	47600
299.749	47610
299.786	47620
299.76	47630
299.801	47640
299.756	47650
299.757	47660
299.779	47670
299.77	47680
299.739	47690
299.804	47700
299.793	47710
299.789	47720
299.793	47730
299.774	47740
299.83	47750
299.768	47760
299.773	47770
299.788	47780
299.807	47790
299.79	47800
299.754	47810
299.767	47820
299.767	47830
299.786	47840
299.782	47850
299.779	47860
299.78	47870
299.776	47880
299.79	47890
299.757	47900
299.765	47910
299.742	47920
299.829	47930
299.799	47940
299.785	47950
299.806	47960
299.775	47970
299.795	47980
299.766	47990
299.776	48000
299.774	48010
299.792	48020
299.822	48030
299.831	48040
299.835	48050
299.887	48060
299.935	48070
299.94	48080
299.923	48090
299.873	48100
299.848	48110
299.848	48120
299.796	48130
299.752	48140
299.787	48150
299.756	48160
299.594	48170
299.608	48180
300.194	48190
300.805	48200
300.182	48210
299.512	48220
299.532	48230
299.73	48240
299.793	48250
299.826	48260
299.817	48270
299.891	48280
299.929	48290
299.983	48300
299.999	48310
299.979	48320
300.008	48330
299.948	48340
299.931	48350
299.888	48360
299.861	48370
299.813	48380
299.795	48390
299.806	48400
299.795	48410
299.822	48420
299.779	48430
299.754	48440
299.779	48450
299.754	48460
299.766	48470
299.764	48480
299.763	48490
299.757	48500
299.787	48510
299.772	48520
299.759	48530
299.812	48540
299.767	48550
299.808	48560
299.796	48570
299.818	48580
299.784	48590
299.779	48600
299.782	48610
299.787	48620
299.793	48630
299.768	48640
299.798	48650
299.8	48660
299.743	48670
299.787	48680
299.764	48690
299.792	48700
299.775	48710
299.784	48720
299.807	48730
299.764	48740
299.828	48750
299.764	48760
299.782	48770
299.786	48780
299.742	48790
299.79	48800
299.802	48810
299.815	48820
299.771	48830
299.841	48840
299.876	48850
299.894	48860
299.943	48870
299.927	48880
299.939	48890
299.856	48900
299.849	48910
299.812	48920
299.803	48930
299.815	48940
299.788	48950
299.754	48960
299.65	48970
299.598	48980
300.243	48990
300.818	49000
300.196	49010
299.504	49020
299.519	49030
299.761	49040
299.786	49050
299.805	49060
299.83	49070
299.898	49080
299.872	49090
299.954	49100
299.978	49110
300.002	49120
299.991	49130
299.978	49140
299.924	49150
299.891	49160
299.874	49170
299.83	49180
299.819	49190
299.819	49200
299.81	49210
299.807	49220
299.772	49230
299.783	49240
299.797	49250
299.81	49260
299.768	49270
299.793	49280
299.79	49290
299.791	49300
299.77	49310
299.777	49320
299.797	49330
299.767	49340
299.805	49350
299.804	49360
299.795	49370
299.766	49380
299.787	49390
299.822	49400
299.785	49410
299.803	49420
299.81	49430
299.799	49440
299.814	49450
299.773	49460
299.804	49470
299.78	49480
299.821	49490
299.826	49500
299.801	49510
299.797	49520
299.749	49530
299.774	49540
299.808	49550
299.808	49560
299.801	49570
299.843	49580
299.786	49590
299.791	49600
299.825	49610
299.812	49620
299.793	49630
299.834	49640
299.831	49650
299.889	49660
299.942	49670
299.952	49680
299.968	49690
299.903	49700
299.879	49710
299.804	49720
299.828	49730
299.785	49740
299.782	49750
299.768	49760
299.627	49770
299.609	49780
300.204	49790
300.828	49800
300.192	49810
299.551	49820
299.593	49830
299.729	49840
299.813	49850
299.878	49860
299.857	49870
299.893	49880
299.904	49890
299.998	49900
299.959	49910
300.059	49920
299.984	49930
299.941	49940
299.903	49950
299.871	49960
299.819	49970
299.836	49980
299.826	49990
299.806	50000
299.835	50010
299.817	50020
299.807	50030
299.84	50040
299.774	50050
299.782	50060
299.844	50070
299.758	50080
299.79	50090
299.779	50100
299.841	50110
299.814	50120
299.828	50130
299.819	50140
299.772	50150
299.806	50160
299.799	50170
299.815	50180
299.764	50190
299.798	50200
299.744	50210
299.78	50220
299.754	50230
299.797	50240
299.789	50250
299.855	50260
299.822	50270
299.827	50280
299.797	50290
299.795	50300
299.803	50310
299.807	50320
299.764	50330
299.812	50340
299.796	50350
299.824	50360
299.814	50370
299.794	50380
299.778	50390
299.793	50400
299.806	50410
299.806	50420
299.862	50430
299.812	50440
299.88	50450
299.864	50460
299.944	50470
299.941	50480
299.98	50490
299.923	50500
299.878	50510
299.797	50520
299.848	50530
299.8	50540
299.821	50550
299.816	50560
299.629	50570
299.679	50580
300.286	50590
300.817	50600
300.165	50610
299.562	50620
299.533	50630
299.758	50640
299.805	50650
299.851	50660
299.897	50670
299.882	50680
299.945	50690
299.964	50700
300.0	50710
300.017	50720
300.024	50730
299.98	50740
299.946	50750
299.869	50760
299.871	50770
299.832	50780
299.793	50790
299.836	50800
299.824	50810
299.791	50820
299.819	50830
299.791	50840
299.8	50850
299.846	50860
299.814	50870
299.804	50880
299.787	50890
299.775	50900
299.789	50910
299.801	50920
299.804	50930
299.81	50940
299.78	50950
299.814	50960
299.83	50970
299.815	50980
299.851	50990
299.779	51000
299.817	51010
299.819	51020
299.805	51030
299.8	51040
299.777	51050
299.829	51060
299.833	51070
299.754	51080
299.836	51090
299.796	51100
299.8	51110
299.84	51120
299.796	51130
299.867	51140
299.789	51150
299.847	51160
299.816	51170
299.808	51180
299.853	51190
299.847	51200
299.81	51210
299.823	51220
299.828	51230
299.889	51240
299.902	51250
299.892	51260
299.955	51270
299.955	51280
299.989	51290
299.886	51300
299.852	51310
299.84	51320
299.827	51330
299.86	51340
299.859	51350
299.816	51360
299.675	51370
299.661	51380
300.211	51390
300.828	51400
300.173	51410
299.581	51420
299.569	51430
299.797	51440
299.836	51450
299.81	51460
299.858	51470
299.934	51480
299.961	51490
299.93	51500
300.042	51510
300.032	51520
299.991	51530
299.995	51540
299.939	51550
299.953	51560
299.865	51570
299.851	51580
299.853	51590
299.827	51600
299.847	51610
299.801	51620
299.813	51630
299.848	51640
299.845	51650
299.78	51660
299.781	51670
299.833	51680
299.837	51690
299.823	51700
299.803	51710
299.817	51720
299.82	51730
299.809	51740
299.83	51750
299.817	51760
299.826	51770
299.831	51780
299.781	51790
299.826	51800
299.833	51810
299.8	51820
299.801	51830
299.807	51840
299.826	51850
299.82	51860
299.843	51870
299.827	51880
299.806	51890
299.865	51900
299.81	51910
299.82	51920
299.83	51930
299.816	51940
299.794	51950
299.802	51960
299.833	51970
299.793	51980
299.778	51990
299.793	52000
299.836	52010
299.819	52020
299.844	52030
299.883	52040
299.904	52050
299.969	52060
299.935	52070
299.961	52080
299.95	52090
299.94	52100
299.848	52110
299.863	52120
299.867	52130
299.834	52140
299.813	52150
299.851	52160
299.668	52170
299.64	52180
300.258	52190
300.874	52200
300.21	52210
299.549	52220
299.551	52230
299.757	52240
299.81	52250
299.869	52260
299.871	52270
299.931	52280
299.922	52290
299.971	52300
300.004	52310
300.026	52320
300.023	52330
300.024	52340
299.949	52350
299.894	52360
299.889	52370
299.855	52380
299.798	52390
299.78	52400
299.84	52410
299.798	52420
299.796	52430
299.82	52440
299.851	52450
299.827	52460
299.818	52470
299.807	52480
299.823	52490
299.814	52500
299.839	52510
299.834	52520
299.795	52530
299.822	52540
299.807	52550
299.808	52560
299.805	52570
299.818	52580
299.8	52590
299.765	52600
299.812	52610
299.877	52620
299.806	52630
299.807	52640
299.849	52650
299.849	52660
299.809	52670
299.788	52680
299.825	52690
299.826	52700
299.804	52710
299.806	52720
299.771	52730
299.819	52740
299.839	52750
299.857	52760
299.79	52770
299.824	52780
299.829	52790
299.815	52800
299.792	52810
299.825	52820
299.841	52830
299.833	52840
299.901	52850
299.921	52860
299.985	52870
299.998	52880
299.938	52890
299.917	52900
299.831	52910
299.85	52920
299.855	52930
299.84	52940
299.856	52950
299.81	52960
299.653	52970
299.692	52980
300.291	52990
300.849	53000
300.195	53010
299.546	53020
299.528	53030
299.767	53040
299.833	53050
299.838	53060
299.911	53070
299.912	53080
299.929	53090
299.985	53100
300.042	53110
299.995	53120
300.001	53130
300.014	53140
299.926	53150
299.897	53160
299.868	53170
299.851	53180
299.884	53190
299.814	53200
299.875	53210
299.812	53220
299.827	53230
299.834	53240
299.859	53250
299.818	53260
299.804	53270
299.79	53280
299.81	53290
299.825	53300
299.83	53310
299.855	53320
299.81	53330
299.798	53340
299.816	53350
299.851	53360
299.815	53370
299.785	53380
299.842	53390
299.788	53400
299.797	53410
299.846	53420
299.839	53430
299.811	53440
299.831	53450
299.82	53460
299.822	53470
299.809	53480
299.818	53490
299.805	53500
299.761	53510
299.828	53520
299.804	53530
299.782	53540
299.806	53550
299.841	53560
299.83	53570
299.816	53580
299.811	53590
299.804	53600
299.815	53610
299.818	53620
299.862	53630
299.887	53640
299.899	53650
299.944	53660
299.94	53670
299.958	53680
299.935	53690
299.956	53700
299.877	53710
299.859	53720
299.835	53730
299.798	53740
299.825	53750
299.828	53760
299.672	53770
299.64	53780
300.237	53790
300.827	53800
300.238	53810
299.497	53820
299.525	53830
299.755	53840
299.824	53850
299.833	53860
299.86	53870
299.855	53880
299.916	53890
299.99	53900
299.98	53910
300.043	53920
300.002	53930
299.958	53940
299.903	53950
299.861	53960
299.853	53970
299.853	53980
299.851	53990
299.811	54000
299.804	54010
299.838	54020
299.817	54030
299.815	54040
299.821	54050
299.843	54060
299.8	54070
299.83	54080
299.785	54090
299.865	54100
299.833	54110
299.833	54120
299.769	54130
299.803	54140
299.877	54150
299.818	54160
299.828	54170
299.798	54180
299.814	54190
299.791	54200
299.805	54210
299.854	54220
299.793	54230
299.811	54240
299.814	54250
299.812	54260
299.813	54270
299.809	54280
299.829	54290
299.814	54300
299.792	54310
299.801	54320
299.809	54330
299.813	54340
299.846	54350
299.8	54360
299.815	54370
299.815	54380
299.853	54390
299.805	54400
299.85	54410
299.784	54420
299.815	54430
299.849	54440
299.857	54450
299.93	54460
299.971	54470
299.96	54480
299.919	54490
299.897	54500
299.876	54510
299.812	54520
299.825	54530
299.814	54540
299.8	54550
299.791	54560
299.607	54570
299.617	54580
300.225	54590
300.845	54600
300.195	54610
299.492	54620
299.54	54630
299.763	54640
299.808	54650
299.8	54660
299.88	54670
299.923	54680
299.96	54690
299.982	54700
300.002	54710
299.97	54720
299.986	54730
299.99	54740
299.939	54750
299.912	54760
299.845	54770
299.819	54780
299.867	54790
299.777	54800
299.804	54810
299.828	54820
299.794	54830
299.81	54840
299.809	54850
299.763	54860
299.796	54870
299.791	54880
299.792	54890
299.794	54900
299.801	54910
299.801	54920
299.784	54930
299.795	54940
299.78	54950
299.791	54960
299.79	54970
299.802	54980
299.795	54990
299.816	55000
299.837	55010
299.788	55020
299.804	55030
299.833	55040
299.805	55050
299.79	55060
299.768	55070
299.791	55080
299.789	55090
299.756	55100
299.807	55110
299.803	55120
299.804	55130
299.789	55140
299.821	55150
299.807	55160
299.791	55170
299.793	55180
299.813	55190
299.799	55200
299.795	55210
299.785	55220
299.834	55230
299.838	55240
299.844	55250
299.92	55260
299.953	55270
299.923	55280
299.948	55290
299.875	55300
299.825	55310
299.859	55320
299.813	55330
299.853	55340
299.829	55350
299.782	55360
299.639	55370
299.656	55380
300.243	55390
300.78	55400
300.188	55410
299.517	55420
299.533	55430
299.774	55440
299.795	55450
299.815	55460
299.825	55470
299.911	55480
299.91	55490
299.989	55500
300.037	55510
299.969	55520
300.001	55530
299.944	55540
299.923	55550
299.897	55560
299.836	55570
299.815	55580
299.824	55590
299.832	55600
299.785	55610
299.831	55620
299.784	55630
299.779	55640
299.803	55650
299.818	55660
299.82	55670
299.791	55680
299.782	55690
299.803	55700
299.76	55710
299.806	55720
299.8	55730
299.808	55740
299.747	55750
299.734	55760
299.755	55770
299.771	55780
299.778	55790
299.807	55800
299.807	55810
299.783	55820
299.775	55830
299.817	55840
299.773	55850
299.805	55860
299.787	55870
299.79	55880
299.791	55890
299.782	55900
299.75	55910
299.794	55920
299.74	55930
299.802	55940
299.746	55950
299.791	55960
299.746	55970
299.823	55980
299.806	55990
299.822	56000
299.802	56010
299.771	56020
299.82	56030
299.785	56040
299.861	56050
299.924	56060
299.908	56070
299.905	56080
299.904	56090
299.878	56100
299.852	56110
299.816	56120
299.76	56130
299.79	56140
299.759	56150
299.772	56160
299.604	56170
299.616	56180
300.242	56190
300.77	56200
300.161	56210
299.521	56220
299.533	56230
299.738	56240
299.779	56250
299.823	56260
299.85	56270
299.91	56280
299.914	56290
299.951	56300
299.968	56310
299.949	56320
299.956	56330
299.988	56340
299.923	56350
299.874	56360
299.849	56370
299.804	56380
299.812	56390
299.755	56400
299.769	56410
299.802	56420
299.795	56430
299.782	56440
299.823	56450
299.773	56460
299.85	56470
299.785	56480
299.779	56490
299.728	56500
299.802	56510
299.798	56520
299.772	56530
299.761	56540
299.826	56550
299.782	56560
299.758	56570
299.816	56580
299.793	56590
299.758	56600
299.766	56610
299.765	56620
299.807	56630
299.775	56640
299.801	56650
299.775	56660
299.796	56670
299.758	56680
299.834	56690
299.803	56700
299.808	56710
299.769	56720
299.793	56730
299.801	56740
299.788	56750
299.789	56760
299.781	56770
299.771	56780
299.765	56790
299.761	56800
299.803	56810
299.782	56820
299.801	56830
299.813	56840
299.863	56850
299.857	56860
299.911	56870
299.944	56880
299.944	56890
299.891	56900
299.846	56910
299.82	56920
299.816	56930
299.787	56940
299.795	56950
299.733	56960
299.63	56970
299.553	56980
300.247	56990
300.796	57000
300.166	57010
299.534	57020
299.489	57030
299.745	57040
299.832	57050
299.811	57060
299.842	57070
299.872	57080
299.897	57090
299.959	57100
299.981	57110
299.994	57120
300.008	57130
299.901	57140
299.893	57150
299.868	57160
299.852	57170
299.835	57180
299.79	57190
299.793	57200
299.779	57210
299.809	57220
299.788	57230
299.778	57240
299.807	57250
299.811	57260
299.807	57270
299.793	57280
299.83	57290
299.778	57300
299.782	57310
299.764	57320
299.79	57330
299.766	57340
299.796	57350
299.794	57360
299.808	57370
299.785	57380
299.798	57390
299.786	57400
299.767	57410
299.786	57420
299.777	57430
299.787	57440
299.791	57450
299.764	57460
299.781	57470
299.801	57480
299.742	57490
299.782	57500
299.754	57510
299.792	57520
299.773	57530
299.778	57540
299.74	57550
299.803	57560
299.796	57570
299.779	57580
299.771	57590
299.744	57600
299.745	57610
299.801	57620
299.785	57630
299.808	57640
299.819	57650
299.913	57660
299.91	57670
299.921	57680
299.958	57690
299.847	57700
299.839	57710
299.809	57720
299.745	57730
299.77	57740
299.808	57750
299.797	57760
299.644	57770
299.598	57780
300.246	57790
300.81	57800
300.141	57810
299.512	57820
299.513	57830
299.742	57840
299.777	57850
299.811	57860
299.826	57870
299.869	57880
299.901	57890
299.959	57900
299.952	57910
299.995	57920
299.989	57930
299.912	57940
299.912	57950
299.866	57960
299.844	57970
299.82	57980
299.755	57990
299.798	58000
299.79	58010
299.784	58020
299.77	58030
299.78	58040
299.797	58050
299.789	58060
299.787	58070
299.784	58080
299.796	58090
299.793	58100
299.784	58110
299.755	58120
299.779	58130
299.727	58140
299.748	58150
299.762	58160
299.773	58170
299.799	58180
299.765	58190
299.771	58200
299.765	58210
299.786	58220
299.797	58230
299.742	58240
299.76	58250
299.814	58260
299.765	58270
299.825	58280
299.804	58290
299.797	58300
299.792	58310
299.79	58320
299.793	58330
299.745	58340
299.806	58350
299.784	58360
299.799	58370
299.803	58380
299.806	58390
299.788	58400
299.786	58410
299.756	58420
299.846	58430
299.827	58440
299.868	58450
299.874	58460
299.945	58470
299.931	58480
299.895	58490
299.891	58500
299.838	58510
299.833	58520
299.801	58530
299.787	58540
299.856	58550
299.753	58560
299.606	58570
299.655	58580
300.207	58590
300.775	58600
300.163	58610
299.516	58620
299.517	58630
299.771	58640
299.802	58650
299.801	58660
299.869	58670
299.868	58680
299.906	58690
299.912	58700
299.995	58710
299.97	58720
299.973	58730
299.946	58740
299.901	58750
299.893	58760
299.868	58770
299.784	58780
299.84	58790
299.799	58800
299.736	58810
299.809	58820
299.784	58830
299.833	58840
299.81	58850
299.767	58860
299.796	58870
299.796	58880
299.797	58890
299.797	58900
299.781	58910
299.746	58920
299.763	58930
299.756	58940
299.779	58950
299.774	58960
299.807	58970
299.816	58980
299.817	58990
299.785	59000
299.753	59010
299.789	59020
299.766	59030
299.758	59040
299.779	59050
299.819	59060
299.775	59070
299.739	59080
299.774	59090
299.779	59100
299.786	59110
299.783	59120
299.804	59130
299.797	59140
299.777	59150
299.802	59160
299.787	59170
299.77	59180
299.779	59190
299.784	59200
299.763	59210
299.786	59220
299.834	59230
299.86	59240
299.872	59250
299.881	59260
299.918	59270
299.875	59280
299.952	59290
299.852	59300
299.867	59310
299.829	59320
299.815	59330
299.82	59340
299.807	59350
299.775	59360
299.601	59370
299.595	59380
300.232	59390
300.772	59400
300.181	59410
299.536	59420
299.519	59430
299.761	59440
299.839	59450
299.815	59460
299.859	59470
299.868	59480
299.879	59490
299.94	59500
299.955	59510
300.019	59520
300.01	59530
299.919	59540
299.907	59550
299.86	59560
299.84	59570
299.835	59580
299.83	59590
299.801	59600
299.783	59610
299.728	59620
299.785	59630
299.8	59640
299.793	59650
299.799	59660
299.734	59670
299.773	59680
299.799	59690
299.783	59700
299.805	59710
299.774	59720
299.842	59730
299.797	59740
299.79	59750
299.8	59760
299.811	59770
299.795	59780
299.772	59790
299.739	59800
299.817	59810
299.773	59820
299.763	59830
299.821	59840
299.817	59850
299.817	59860
299.785	59870
299.792	59880
299.779	59890
299.785	59900
299.826	59910
299.772	59920
299.76	59930
299.815	59940
299.832	59950
299.824	59960
299.79	59970
299.79	59980
299.82	59990
299.788	60000
299.806	60010
299.812	60020
299.789	60030
299.799	60040
299.886	60050
299.904	60060
299.932	60070
299.98	60080
299.947	60090
299.899	60100
299.879	60110
299.831	60120
299.84	60130
299.804	60140
299.781	60150
299.771	60160
299.613	60170
299.624	60180
300.262	60190
300.826	60200
300.209	60210
299.527	60220
299.52	60230
299.765	60240
299.795	60250
299.811	60260
299.885	60270
299.942	60280
299.956	60290
299.953	60300
299.999	60310
300.017	60320
300.024	60330
299.952	60340
299.964	60350
299.909	60360
299.833	60370
299.84	60380
299.804	60390
299.819	60400
299.779	60410
299.77	60420
299.841	60430
299.835	60440
299.848	60450
299.803	60460
299.79	60470
299.856	60480
299.856	60490
299.813	60500
299.764	60510
299.822	60520
299.793	60530
299.778	60540
299.826	60550
299.811	60560
299.815	60570
299.79	60580
299.772	60590
299.803	60600
299.816	60610
299.792	60620
299.816	60630
299.784	60640
299.8	60650
299.821	60660
299.783	60670
299.834	60680
299.811	60690
299.802	60700
299.801	60710
299.777	60720
299.783	60730
299.795	60740
299.786	60750
299.79	60760
299.817	60770
299.788	60780
299.83	60790
299.793	60800
299.843	60810
299.775	60820
299.783	60830
299.828	60840
299.882	60850
299.94	60860
299.961	60870
299.945	60880
299.939	60890
299.921	60900
299.868	60910
299.866	60920
299.854	60930
299.825	60940
299.798	60950
299.799	60960
299.665	60970
299.618	60980
300.271	60990
300.822	61000
300.172	61010
299.539	61020
299.546	61030
299.785	61040
299.81	61050
299.877	61060
299.908	61070
299.884	61080
299.955	61090
299.966	61100
299.999	61110
300.023	61120
299.99	61130
299.963	61140
299.924	61150
299.932	61160
299.902	61170
299.831	61180
299.822	61190
299.798	61200
299.808	61210
299.848	61220
299.845	61230
299.854	61240
299.853	61250
299.848	61260
299.81	61270
299.822	61280
299.799	61290
299.798	61300
299.84	61310
299.833	61320
299.813	61330
299.783	61340
299.797	61350
299.787	61360
299.794	61370
299.809	61380
299.832	61390
299.811	61400
299.809	61410
299.826	61420
299.785	61430
299.824	61440
299.818	61450
299.83	61460
299.787	61470
299.839	61480
299.824	61490
299.845	61500
299.807	61510
299.814	61520
299.848	61530
299.83	61540
299.824	61550
299.838	61560
299.783	61570
299.848	61580
299.836	61590
299.817	61600
299.804	61610
299.785	61620
299.838	61630
299.866	61640
299.864	61650
299.907	61660
299.964	61670
299.961	61680
299.934	61690
299.896	61700
299.851	61710
299.838	61720
299.848	61730
299.818	61740
299.813	61750
299.827	61760
299.635	61770
299.67	61780
300.27	61790
300.87	61800
300.195	61810
299.545	61820
299.557	61830
299.813	61840
299.824	61850
299.886	61860
299.902	61870
299.927	61880
299.954	61890
299.989	61900
300.025	61910
299.998	61920
300.0	61930
299.986	61940
300.004	61950
299.899	61960
299.883	61970
299.862	61980
299.853	61990
299.796	62000
299.831	62010
299.79	62020
299.828	62030
299.771	62040
299.827	62050
299.784	62060
299.825	62070
299.828	62080
299.825	62090
299.832	62100
299.833	62110
299.773	62120
299.831	62130
299.806	62140
299.854	62150
299.833	62160
299.827	62170
299.815	62180
299.831	62190
299.814	62200
299.857	62210
299.793	62220
299.789	62230
299.813	62240
299.827	62250
299.849	62260
299.837	62270
299.827	62280
299.802	62290
299.813	62300
299.81	62310
299.792	62320
299.834	62330
299.856	62340
299.834	62350
299.772	62360
299.802	62370
299.801	62380
299.83	62390
299.812	62400
299.803	62410
299.83	62420
299.847	62430
299.861	62440
299.893	62450
299.918	62460
299.976	62470
299.974	62480
299.982	62490
299.933	62500
299.89	62510
299.847	62520
299.833	62530
299.793	62540
299.844	62550
299.826	62560
299.636	62570
299.676	62580
300.257	62590
300.807	62600
300.19	62610
299.554	62620
299.582	62630
299.784	62640
299.83	62650
299.871	62660
299.874	62670
299.909	62680
299.949	62690
299.97	62700
299.996	62710
300.029	62720
300.039	62730
299.969	62740
299.975	62750
299.908	62760
299.868	62770
299.87	62780
299.808	62790
299.85	62800
299.806	62810
299.85	62820
299.835	62830
299.813	62840
299.807	62850
299.834	62860
299.883	62870
299.839	62880
299.845	62890
299.846	62900
299.827	62910
299.827	62920
299.826	62930
299.81	62940
299.844	62950
299.834	62960
299.822	62970
299.816	62980
299.792	62990
299.813	63000
299.874	63010
299.824	63020
299.846	63030
299.835	63040
299.812	63050
299.824	63060
299.828	63070
299.796	63080
299.817	63090
299.831	63100
299.827	63110
299.825	63120
299.805	63130
299.827	63140
299.778	63150
299.812	63160
299.823	63170
299.835	63180
299.789	63190
299.801	63200
299.8	63210
299.841	63220
299.857	63230
299.887	63240
299.889	63250
299.929	63260
299.944	63270
299.97	63280
299.945	63290
299.888	63300
299.877	63310
299.837	63320
299.83	63330
299.791	63340
299.798	63350
299.832	63360
299.649	63370
299.666	63380
300.26	63390
300.83	63400
300.172	63410
299.545	63420
299.603	63430
299.776	63440
299.82	63450
299.844	63460
299.909	63470
299.884	63480
299.909	63490
300.005	63500
299.999	63510
300.012	63520
300.029	63530
299.974	63540
300.003	63550
299.92	63560
299.861	63570
299.848	63580
299.786	63590
299.816	63600
299.79	63610
299.83	63620
299.784	63630
299.835	63640
299.819	63650
299.796	63660
299.848	63670
299.799	63680
299.822	63690
299.782	63700
299.825	63710
299.818	63720
299.82	63730
299.788	63740
299.854	63750
299.831	63760
299.822	63770
299.82	63780
299.827	63790
299.824	63800
299.813	63810
299.838	63820
299.822	63830
299.804	63840
299.771	63850
299.799	63860
299.835	63870
299.793	63880
299.771	63890
299.818	63900
299.821	63910
299.818	63920
299.846	63930
299.822	63940
299.822	63950
299.784	63960
299.816	63970
299.775	63980
299.803	63990
299.829	64000
299.809	64010
299.815	64020
299.843	64030
299.845	64040
299.897	64050
299.899	64060
299.96	64070
299.949	64080
299.997	64090
299.896	64100
299.884	64110
299.874	64120
299.818	64130
299.794	64140
299.817	64150
299.777	64160
299.649	64170
299.633	64180
300.282	64190
300.855	64200
300.226	64210
299.522	64220
299.553	64230
299.765	64240
299.843	64250
299.834	64260
299.854	64270
299.836	64280
299.949	64290
300.009	64300
299.99	64310
300.01	64320
300.024	64330
300.0	64340
299.93	64350
299.939	64360
299.877	64370
299.877	64380
299.862	64390
299.813	64400
299.787	64410
299.836	64420
299.758	64430
299.808	64440
299.822	64450
299.804	64460
299.818	64470
299.823	64480
299.82	64490
299.846	64500
299.807	64510
299.784	64520
299.795	64530
299.797	64540
299.817	64550
299.797	64560
299.82	64570
299.788	64580
299.833	64590
299.817	64600
299.787	64610
299.838	64620
299.805	64630
299.784	64640
299.791	64650
299.835	64660
299.796	64670
299.812	64680
299.795	64690
299.81	64700
299.799	64710
299.783	64720
299.8	64730
299.807	64740
299.832	64750
299.794	64760
299.823	64770
299.784	64780
299.803	64790
299.743	64800
299.782	64810
299.797	64820
299.806	64830
299.842	64840
299.855	64850
299.893	64860
299.984	64870
299.982	64880
299.935	64890
299.91	64900
299.88	64910
299.846	64920
299.799	64930
299.774	64940
299.808	64950
299.804	64960
299.59	64970
299.62	64980
300.254	64990
300.832	65000
300.216	65010
299.518	65020
299.517	65030
299.771	65040
299.804	65050
299.779	65060
299.844	65070
299.934	65080
299.892	65090
299.927	65100
299.952	65110
300.023	65120
300.006	65130
299.999	65140
299.925	65150
299.872	65160
299.86	65170
299.812	65180
299.816	65190
299.827	65200
299.812	65210
299.788	65220
299.847	65230
299.808	65240
299.788	65250
299.815	65260
299.805	65270
299.743	65280
299.843	65290
299.771	65300
299.805	65310
299.806	65320
299.758	65330
299.789	65340
299.777	65350
299.799	65360
299.81	65370
299.785	65380
299.818	65390
299.805	65400
299.801	65410
299.803	65420
299.809	65430
299.831	65440
299.776	65450
299.788	65460
299.791	65470
299.775	65480
299.747	65490
299.816	65500
299.798	65510
299.781	65520
299.754	65530
299.787	65540
299.769	65550
299.76	65560
299.776	65570
299.779	65580
299.79	65590
299.808	65600
299.739	65610
299.812	65620
299.772	65630
299.838	65640
299.873	65650
299.888	65660
299.934	65670
299.901	65680
299.938	65690
299.94	65700
299.866	65710
299.846	65720
299.759	65730
299.816	65740
299.786	65750
299.802	65760
299.624	65770
299.68	65780
300.274	65790
300.844	65800
300.174	65810
299.501	65820
299.479	65830
299.76	65840
299.766	65850
299.812	65860
299.858	65870
299.879	65880
299.935	65890
299.931	65900
299.975	65910
299.957	65920
300.012	65930
299.923	65940
299.905	65950
299.852	65960
299.868	65970
299.837	65980
299.815	65990
299.848	66000
299.822	66010
299.831	66020
299.803	66030
299.756	66040
299.808	66050
299.823	66060
299.764	66070
299.777	66080
299.78	66090
299.772	66100
299.768	66110
299.753	66120
299.798	66130
299.782	66140
299.78	66150
299.785	66160
299.785	66170
299.8	66180
299.758	66190
299.787	66200
299.77	66210
299.801	66220
299.836	66230
299.764	66240
299.821	66250
299.733	66260
299.788	66270
299.77	66280
299.809	66290
299.824	66300
299.738	66310
299.816	66320
299.792	66330
299.748	66340
299.757	66350
299.79	66360
299.811	66370
299.803	66380
299.733	66390
299.718	66400
299.771	66410
299.742	66420
299.807	66430
299.827	66440
299.879	66450
299.861	66460
299.898	66470
299.947	66480
299.936	66490
299.902	66500
299.827	66510
299.797	66520
299.826	66530
299.786	66540
299.787	66550
299.792	66560
299.612	66570
299.611	66580
300.179	66590
300.823	66600
300.195	66610
299.525	66620
299.516	66630
299.78	66640
299.827	66650
299.799	66660
299.833	66670
299.872	66680
299.859	66690
299.94	66700
299.969	66710
300.0	66720
299.959	66730
299.946	66740
299.884	66750
299.885	66760
299.875	66770
299.843	66780
299.803	66790
299.779	66800
299.805	66810
299.791	66820
299.786	66830
299.829	66840
299.762	66850
299.783	66860
299.761	66870
299.799	66880
299.821	66890
299.817	66900
299.791	66910
299.764	66920
299.769	66930
299.786	66940
299.799	66950
299.793	66960
299.811	66970
299.797	66980
299.787	66990
299.775	67000
299.767	67010
299.78	67020
299.789	67030
299.779	67040
299.77	67050
299.77	67060
299.791	67070
299.782	67080
299.814	67090
299.791	67100
299.775	67110
299.756	67120
299.754	67130
299.766	67140
299.791	67150
299.785	67160
299.781	67170
299.775	67180
299.758	67190
299.823	67200
299.776	67210
299.8	67220
299.778	67230
299.84	67240
299.834	67250
299.882	67260
299.926	67270
299.893	67280
299.943	67290
299.845	67300
299.824	67310
299.819	67320
299.85	67330
299.814	67340
299.731	67350
299.746	67360
299.6	67370
299.641	67380
300.202	67390
300.736	67400
300.163	67410
299.485	67420
299.525	67430
299.694	67440
299.783	67450
299.846	67460
299.855	67470
299.876	67480
299.913	67490
299.958	67500
299.966	67510
300.023	67520
299.984	67530
299.923	67540
299.946	67550
299.878	67560
299.838	67570
299.831	67580
299.803	67590
299.803	67600
299.767	67610
299.788	67620
299.773	67630
299.758	67640
299.776	67650
299.78	67660
299.779	67670
299.769	67680
299.79	67690
299.789	67700
299.808	67710
299.777	67720
299.754	67730
299.781	67740
299.74	67750
299.753	67760
299.785	67770
299.768	67780
299.778	67790
299.776	67800
299.813	67810
299.742	67820
299.825	67830
299.77	67840
299.771	67850
299.771	67860
299.756	67870
299.741	67880
299.77	67890
299.757	67900
299.809	67910
299.831	67920
299.813	67930
299.776	67940
299.775	67950
299.803	67960
299.778	67970
299.814	67980
299.791	67990
299.774	68000
299.773	68010
299.79	68020
299.818	68030
299.827	68040
299.861	68050
299.88	68060
299.936	68070
299.934	68080
299.913	68090
299.886	68100
299.879	68110
299.815	68120
299.785	68130
299.768	68140
299.772	68150
299.728	68160
299.621	68170
299.579	68180
300.203	68190
300.836	68200
300.197	68210
299.541	68220
299.473	68230
299.768	68240
299.784	68250
299.794	68260
299.832	68270
299.888	68280
299.923	68290
299.976	68300
299.98	68310
299.985	68320
299.952	68330
299.962	68340
299.962	68350
299.901	68360
299.893	68370
299.797	68380
299.813	68390
299.801	68400
299.757	68410
299.79	68420
299.801	68430
299.794	68440
299.792	68450
299.754	68460
299.771	68470
299.802	68480
299.749	68490
299.745	68500
299.795	68510
299.796	68520
299.81	68530
299.742	68540
299.791	68550
299.797	68560
299.8	68570
299.786	68580
299.766	68590
299.786	68600
299.774	68610
299.765	68620
299.756	68630
299.766	68640
299.788	68650
299.766	68660
299.817	68670
299.738	68680
299.78	68690
299.787	68700
299.779	68710
299.744	68720
299.794	68730
299.81	68740
299.771	68750
299.793	68760
299.772	68770
299.798	68780
299.768	68790
299.822	68800
299.75	68810
299.787	68820
299.794	68830
299.852	68840
299.852	68850
299.942	68860
299.942	68870
299.93	68880
299.919	68890
299.899	68900
299.825	68910
299.796	68920
299.792	68930
299.778	68940
299.819	68950
299.771	68960
299.642	68970
299.623	68980
300.272	68990
300.789	69000
300.211	69010
299.498	69020
299.535	69030
299.709	69040
299.827	69050
299.784	69060
299.876	69070
299.861	69080
299.938	69090
299.946	69100
299.987	69110
300.018	69120
300.031	69130
299.937	69140
299.963	69150
299.885	69160
299.886	69170
299.833	69180
299.789	69190
299.793	69200
299.768	69210
299.78	69220
299.812	69230
299.805	69240
299.762	69250
299.789	69260
299.787	69270
299.782	69280
299.804	69290
299.797	69300
299.785	69310
299.766	69320
299.782	69330
299.805	69340
299.837	69350
299.787	69360
299.798	69370
299.8	69380
299.765	69390
299.796	69400
299.784	69410
299.79	69420
299.737	69430
299.793	69440
299.793	69450
299.798	69460
299.768	69470
299.803	69480
299.819	69490
299.786	69500
299.794	69510
299.771	69520
299.793	69530
299.808	69540
299.788	69550
299.811	69560
299.786	69570
299.827	69580
299.785	69590
299.79	69600
299.783	69610
299.809	69620
299.777	69630
299.829	69640
299.878	69650
299.885	69660
299.898	69670
299.965	69680
299.951	69690
299.911	69700
299.844	69710
299.875	69720
299.804	69730
299.81	69740
299.796	69750
299.777	69760
299.597	69770
299.607	69780
300.216	69790
300.815	69800
300.202	69810
299.538	69820
299.49	69830
299.781	69840
299.851	69850
299.812	69860
299.888	69870
299.937	69880
299.907	69890
299.949	69900
300.024	69910
300.018	69920
300.039	69930
299.971	69940
299.94	69950
299.898	69960
299.878	69970
299.812	69980
299.811	69990
299.789	70000
299.751	70010
299.796	70020
299.81	70030
299.821	70040
299.744	70050
299.762	70060
299.835	70070
299.81	70080
299.755	70090
299.791	70100
299.785	70110
299.765	70120
299.772	70130
299.809	70140
299.792	70150
299.809	70160
299.784	70170
299.779	70180
299.808	70190
299.822	70200
299.789	70210
299.802	70220
299.777	70230
299.778	70240
299.807	70250
299.785	70260
299.847	70270
299.807	70280
299.821	70290
299.81	70300
299.814	70310
299.815	70320
299.775	70330
299.79	70340
299.813	70350
299.818	70360
299.793	70370
299.803	70380
299.775	70390
299.778	70400
299.816	70410
299.84	70420
299.83	70430
299.847	70440
299.854	70450
299.91	70460
299.893	70470
299.945	70480
299.939	70490
299.897	70500
299.877	70510
299.828	70520
299.818	70530
299.812	70540
299.888	70550
299.803	70560
299.679	70570
299.693	70580
300.276	70590
300.846	70600
300.155	70610
299.492	70620
299.55	70630
299.759	70640
299.797	70650
299.861	70660
299.855	70670
299.929	70680
299.963	70690
299.96	70700
300.037	70710
300.023	70720
300.008	70730
299.955	70740
299.915	70750
299.869	70760
299.853	70770
299.808	70780
299.854	70790
299.826	70800
299.815	70810
299.789	70820
299.814	70830
299.782	70840
299.822	70850
299.815	70860
299.785	70870
299.793	70880
299.821	70890
299.809	70900
299.843	70910
299.801	70920
299.82	70930
299.834	70940
299.809	70950
299.795	70960
299.828	70970
299.798	70980
299.821	70990
299.905	71000
299.779	71010
299.797	71020
299.845	71030
299.806	71040
299.833	71050
299.797	71060
299.815	71070
299.803	71080
299.847	71090
299.829	71100
299.837	71110
299.826	71120
299.799	71130
299.788	71140
299.848	71150
299.803	71160
299.805	71170
299.786	71180
299.805	71190
299.81	71200
299.796	71210
299.855	71220
299.834	71230
299.847	71240
299.867	71250
299.93	71260
299.932	71270
299.973	71280
299.902	71290
299.894	71300
299.917	71310
299.83	71320
299.833	71330
299.846	71340
299.811	71350
299.822	71360
299.666	71370
299.698	71380
300.297	71390
300.855	71400
300.208	71410
299.563	71420
299.493	71430
299.765	71440
299.823	71450
299.854	71460
299.864	71470
299.883	71480
299.944	71490
299.968	71500
300.016	71510
299.998	71520
299.971	71530
299.943	71540
299.912	71550
299.891	71560
299.87	71570
299.87	71580
299.824	71590
299.797	71600
299.817	71610
299.805	71620
299.871	71630
299.842	71640
299.782	71650
299.832	71660
299.829	71670
299.807	71680
299.806	71690
299.813	71700
299.819	71710
299.784	71720
299.842	71730
299.843	71740
299.825	71750
299.842	71760
299.846	71770
299.773	71780
299.83	71790
299.82	71800
299.826	71810
299.758	71820
299.806	71830
299.845	71840
299.817	71850
299.821	71860
299.766	71870
299.835	71880
299.835	71890
299.839	71900
299.81	71910
299.814	71920
299.836	71930
299.857	71940
299.86	71950
299.805	71960
299.813	71970
299.856	71980
299.836	71990
299.84	72000
299.857	72010
299.804	72020
299.829	72030
299.857	72040
299.937	72050
299.951	72060
299.969	72070
299.997	72080
299.952	72090
299.932	72100
299.883	72110
299.854	72120
299.819	72130
299.862	72140
299.848	72150
299.77	72160
299.61	72170
299.678	72180
300.223	72190
300.869	72200
300.195	72210
299.586	72220
299.577	72230
299.797	72240
299.825	72250
299.831	72260
299.865	72270
299.924	72280
299.946	72290
300.026	72300
300.035	72310
299.985	72320
300.037	72330
299.979	72340
299.936	72350
299.94	72360
299.908	72370
299.881	72380
299.837	72390
299.823	72400
299.847	72410
299.825	72420
299.844	72430
299.821	72440
299.82	72450
299.831	72460
299.854	72470
299.806	72480
299.853	72490
299.825	72500
299.814	72510
299.838	72520
299.835	72530
299.839	72540
299.837	72550
299.847	72560
299.824	72570
299.85	72580
299.834	72590
299.809	72600
299.797	72610
299.817	72620
299.835	72630
299.792	72640
299.826	72650
299.844	72660
299.794	72670
299.826	72680
299.802	72690
299.852	72700
299.839	72710
299.854	72720
299.828	72730
299.817	72740
299.829	72750
299.811	72760
299.798	72770
299.812	72780
299.785	72790
299.794	72800
299.821	72810
299.816	72820
299.803	72830
299.862	72840
299.888	72850
299.905	72860
299.944	72870
299.985	72880
299.968	72890
299.947	72900
299.901	72910
299.856	72920
299.866	72930
299.852	72940
299.84	72950
299.766	72960
299.651	72970
299.636	72980
300.248	72990
300.861	73000
300.235	73010
299.56	73020
299.523	73030
299.779	73040
299.806	73050
299.857	73060
299.849	73070
299.905	73080
299.994	73090
300.002	73100
299.958	73110
300.031	73120
300.017	73130
299.98	73140
299.95	73150
299.933	73160
299.864	73170
299.851	73180
299.839	73190
299.845	73200
299.77	73210
299.812	73220
299.811	73230
299.804	73240
299.842	73250
299.787	73260
299.774	73270
299.774	73280
299.851	73290
299.833	73300
299.808	73310
299.869	73320
299.859	73330
299.853	73340
299.856	73350
299.813	73360
299.859	73370
299.804	73380
299.787	73390
299.81	73400
299.804	73410
299.809	73420
299.766	73430
299.81	73440
299.838	73450
299.807	73460
299.811	73470
299.827	73480
299.803	73490
299.794	73500
299.826	73510
299.801	73520
299.794	73530
299.814	73540
299.809	73550
299.819	73560
299.795	73570
299.837	73580
299.812	73590
299.778	73600
299.793	73610
299.78	73620
299.844	73630
299.854	73640
299.878	73650
299.918	73660
299.906	73670
300.018	73680
299.947	73690
299.938	73700
299.863	73710
299.863	73720
299.841	73730
299.805	73740
299.807	73750
299.795	73760
299.696	73770
299.639	73780
300.27	73790
300.82	73800
300.24	73810
299.532	73820
299.562	73830
299.794	73840
299.842	73850
299.856	73860
299.831	73870
299.927	73880
299.922	73890
299.995	73900
300.015	73910
300.007	73920
300.027	73930
299.985	73940
299.93	73950
299.884	73960
299.897	73970
299.84	73980
299.825	73990
299.841	74000
299.816	74010
299.801	74020
299.831	74030
299.744	74040
299.81	74050
299.82	74060
299.816	74070
299.811	74080
299.807	74090
299.783	74100
299.832	74110
299.8	74120
299.835	74130
299.794	74140
299.82	74150
299.798	74160
299.83	74170
299.797	74180
299.784	74190
299.813	74200
299.801	74210
299.776	74220
299.761	74230
299.803	74240
299.822	74250
299.815	74260
299.814	74270
299.825	74280
299.862	74290
299.786	74300
299.786	74310
299.794	74320
299.812	74330
299.825	74340
299.818	74350
299.79	74360
299.815	74370
299.819	74380
299.791	74390
299.797	74400
299.797	74410
299.845	74420
299.816	74430
299.837	74440
299.88	74450
299.916	74460
299.922	74470
299.955	74480
299.973	74490
299.931	74500
299.892	74510
299.833	74520
299.846	74530
299.826	74540
299.816	74550
299.783	74560
299.647	74570
299.663	74580
300.22	74590
300.786	74600
300.169	74610
299.523	74620
299.569	74630
299.719	74640
299.828	74650
299.847	74660
299.876	74670
299.901	74680
299.929	74690
299.993	74700
300.02	74710
299.997	74720
300.023	74730
299.977	74740
299.946	74750
299.923	74760
299.82	74770
299.835	74780
299.83	74790
299.81	74800
299.832	74810
299.827	74820
299.807	74830
299.761	74840
299.826	74850
299.806	74860
299.81	74870
299.826	74880
299.801	74890
299.789	74900
299.808	74910
299.833	74920
299.814	74930
299.79	74940
299.819	74950
299.839	74960
299.799	74970
299.809	74980
299.808	74990
299.826	75000
299.82	75010
299.801	75020
299.784	75030
299.776	75040
299.81	75050
299.799	75060
299.817	75070
299.823	75080
299.768	75090
299.769	75100
299.832	75110
299.871	75120
299.792	75130
299.793	75140
299.812	75150
299.781	75160
299.794	75170
299.829	75180
299.778	75190
299.819	75200
299.824	75210
299.791	75220
299.818	75230
299.873	75240
299.835	75250
299.875	75260
299.935	75270
299.949	75280
299.94	75290
299.861	75300
299.876	75310
299.859	75320
299.824	75330
299.833	75340
299.788	75350
299.818	75360
299.626	75370
299.609	75380
300.242	75390
300.819	75400
300.173	75410
299.551	75420
299.532	75430
299.74	75440
299.813	75450
299.821	75460
299.811	75470
299.918	75480
299.899	75490
299.927	75500
300.007	75510
300.029	75520
299.967	75530
299.924	75540
299.989	75550
299.854	75560
299.872	75570
299.829	75580
299.808	75590
299.829	75600
299.801	75610
299.803	75620
299.773	75630
299.807	75640
299.772	75650
299.775	75660
299.823	75670
299.784	75680
299.789	75690
299.778	75700
299.824	75710
299.777	75720
299.811	75730
299.777	75740
299.781	75750
299.782	75760
299.828	75770
299.753	75780
299.77	75790
299.757	75800
299.793	75810
299.772	75820
299.741	75830
299.82	75840
299.773	75850
299.792	75860
299.804	75870
299.776	75880
299.783	75890
299.795	75900
299.79	75910
299.782	75920
299.783	75930
299.816	75940
299.807	75950
299.742	75960
299.753	75970
299.774	75980
299.801	75990
299.77	76000
299.764	76010
299.773	76020
299.803	76030
299.823	76040
299.844	76050
299.884	76060
299.901	76070
299.906	76080
299.904	76090
299.901	76100
299.848	76110
299.838	76120
299.755	76130
299.812	76140
299.79	76150
299.769	76160
299.653	76170
299.639	76180
300.268	76190
300.849	76200
300.178	76210
299.534	76220
299.537	76230
299.735	76240
299.799	76250
299.807	76260
299.882	76270
299.889	76280
299.906	76290
299.98	76300
299.957	76310
299.996	76320
299.999	76330
299.923	76340
299.941	76350
299.865	76360
299.846	76370
299.806	76380
299.811	76390
299.781	76400
299.822	76410
299.744	76420
299.751	76430
299.819	76440
299.789	76450
299.74	76460
299.806	76470
299.825	76480
299.781	76490
299.783	76500
299.727	76510
299.778	76520
299.802	76530
299.782	76540
299.769	76550
299.749	76560
299.771	76570
299.751	76580
299.783	76590
299.788	76600
299.818	76610
299.793	76620
299.766	76630
299.754	76640
299.783	76650
299.811	76660
299.804	76670
299.794	76680
299.782	76690
299.785	76700
299.821	76710
299.752	76720
299.794	76730
299.778	76740
299.752	76750
299.782	76760
299.774	76770
299.748	76780
299.797	76790
299.781	76800
299.792	76810
299.795	76820
299.772	76830
299.793	76840
299.853	76850
299.9	76860
299.92	76870
299.95	76880
299.923	76890
299.881	76900
299.855	76910
299.782	76920
299.78	76930
299.814	76940
299.784	76950
299.771	76960
299.608	76970
299.62	76980
300.251	76990
300.823	77000
300.199	77010
299.507	77020
299.551	77030
299.713	77040
299.796	77050
299.819	77060
299.873	77070
299.885	77080
299.911	77090
299.935	77100
299.978	77110
299.969	77120
300.028	77130
299.969	77140
299.855	77150
299.849	77160
299.823	77170
299.817	77180
299.758	77190
299.812	77200
299.77	77210
299.795	77220
299.756	77230
299.772	77240
299.778	77250
299.818	77260
299.816	77270
299.8	77280
299.766	77290
299.752	77300
299.784	77310
299.744	77320
299.781	77330
299.763	77340
299.733	77350
299.757	77360
299.812	77370
299.764	77380
299.795	77390
299.779	77400
299.78	77410
299.721	77420
299.815	77430
299.781	77440
299.772	77450
299.786	77460
299.81	77470
299.777	77480
299.731	77490
299.789	77500
299.81	77510
299.762	77520
299.743	77530
299.797	77540
299.77	77550
299.802	77560
299.762	77570
299.756	77580
299.785	77590
299.737	77600
299.747	77610
299.739	77620
299.825	77630
299.791	77640
299.901	77650
299.89	77660
299.887	77670
299.937	77680
299.927	77690
299.902	77700
299.849	77710
299.827	77720
299.794	77730
299.748	77740
299.774	77750
299.748	77760
299.631	77770
299.601	77780
300.268	77790
300.834	77800
300.183	77810
299.507	77820
299.522	77830
299.764	77840
299.761	77850
299.807	77860
299.88	77870
299.864	77880
299.908	77890
299.945	77900
299.976	77910
299.991	77920
299.955	77930
299.964	77940
299.978	77950
299.862	77960
299.845	77970
299.816	77980
299.841	77990
299.829	78000
299.774	78010
299.771	78020
299.746	78030
299.82	78040
299.803	78050
299.806	78060
299.765	78070
299.777	78080
299.745	78090
299.783	78100
299.753	78110
299.739	78120
299.794	78130
299.818	78140
299.781	78150
299.795	78160
299.765	78170
299.764	78180
299.785	78190
299.774	78200
299.781	78210
299.782	78220
299.806	78230
299.763	78240
299.794	78250
299.785	78260
299.75	78270
299.796	78280
299.808	78290
299.798	78300
299.757	78310
299.822	78320
299.784	78330
299.774	78340
299.777	78350
299.79	78360
299.811	78370
299.786	78380
299.772	78390
299.79	78400
299.793	78410
299.763	78420
299.829	78430
299.817	78440
299.858	78450
299.864	78460
299.939	78470
299.929	78480
299.926	78490
299.872	78500
299.824	78510
299.854	78520
299.804	78530
299.789	78540
299.794	78550
299.809	78560
299.652	78570
299.587	78580
300.2	78590
300.754	78600
300.212	78610
299.523	78620
299.553	78630
299.733	78640
299.815	78650
299.854	78660
299.855	78670
299.864	78680
299.884	78690
299.93	78700
299.948	78710
300.012	78720
299.969	78730
299.951	78740
299.935	78750
299.897	78760
299.859	78770
299.801	78780
299.823	78790
299.809	78800
299.727	78810
299.821	78820
299.811	78830
299.765	78840
299.792	78850
299.806	78860
299.783	78870
299.816	78880
299.78	78890
299.785	78900
299.774	78910
299.775	78920
299.818	78930
299.77	78940
299.789	78950
299.806	78960
299.802	78970
299.756	78980
299.762	78990
299.78	79000
299.793	79010
299.801	79020
299.818	79030
299.804	79040
299.784	79050
299.759	79060
299.796	79070
299.792	79080
299.811	79090
299.823	79100
299.798	79110
299.786	79120
299.745	79130
299.802	79140
299.787	79150
299.759	79160
299.801	79170
299.795	79180
299.812	79190
299.815	79200
299.768	79210
299.759	79220
299.838	79230
299.859	79240
299.868	79250
299.894	79260
299.938	79270
299.962	79280
299.97	79290
299.895	79300
299.902	79310
299.792	79320
299.811	79330
299.787	79340
299.823	79350
299.778	79360
299.616	79370
299.62	79380
300.205	79390
300.789	79400
300.157	79410
299.497	79420
299.52	79430
299.734	79440
299.83	79450
299.82	79460
299.869	79470
299.938	79480
299.972	79490
299.99	79500
299.985	79510
299.979	79520
299.986	79530
300.0	79540
299.937	79550
299.873	79560
299.9	79570
299.851	79580
299.807	79590
299.754	79600
299.819	79610
299.807	79620
299.783	79630
299.792	79640
299.804	79650
299.805	79660
299.781	79670
299.774	79680
299.756	79690
299.851	79700
299.782	79710
299.783	79720
299.802	79730
299.837	79740
299.756	79750
299.811	79760
299.812	79770
299.802	79780
299.818	79790
299.844	79800
299.799	79810
299.776	79820
299.825	79830
299.816	79840
299.794	79850
299.768	79860
299.794	79870
299.784	79880
299.809	79890
299.813	79900
299.799	79910
299.791	79920
299.833	79930
299.828	79940
299.749	79950
299.819	79960
299.782	79970
299.785	79980
299.822	79990
299.792	80000
299.81	80010
299.781	80020
299.778	80030
299.867	80040
299.872	80050
299.916	80060
299.967	80070
299.973	80080
299.97	80090
299.872	80100
299.876	80110
299.806	80120
299.826	80130
299.836	80140
299.81	80150
299.771	80160
299.676	80170
299.638	80180
300.276	80190
300.831	80200
300.186	80210
299.526	80220
299.55	80230
299.736	80240
299.832	80250
299.885	80260
299.85	80270
299.909	80280
299.973	80290
299.986	80300
300.048	80310
300.056	80320
299.97	80330
299.963	80340
299.951	80350
299.921	80360
299.83	80370
299.778	80380
299.845	80390
299.829	80400
299.797	80410
299.82	80420
299.809	80430
299.751	80440
299.811	80450
299.819	80460
299.825	80470
299.78	80480
299.814	80490
299.736	80500
299.799	80510
299.793	80520
299.812	80530
299.817	80540
299.84	80550
299.762	80560
299.784	80570
299.822	80580
299.796	80590
299.801	80600
299.808	80610
299.793	80620
299.805	80630
299.781	80640
299.81	80650
299.839	80660
299.776	80670
299.844	80680
299.828	80690
299.788	80700
299.834	80710
299.794	80720
299.822	80730
299.799	80740
299.817	80750
299.789	80760
299.806	80770
299.811	80780
299.805	80790
299.813	80800
299.802	80810
299.831	80820
299.802	80830
299.829	80840
299.91	80850
299.963	80860
299.954	80870
299.944	80880
299.943	80890
299.89	80900
299.851	80910
299.849	80920
299.805	80930
299.787	80940
299.802	80950
299.807	80960
299.644	80970
299.637	80980
300.276	80990
300.835	81000
300.192	81010
299.565	81020
299.552	81030
299.761	81040
299.819	81050
299.888	81060
299.844	81070
299.886	81080
299.961	81090
299.979	81100
300.04	81110
300.026	81120
300.012	81130
300.01	81140
299.974	81150
299.91	81160
299.872	81170
299.836	81180
299.833	81190
299.838	81200
299.836	81210
299.833	81220
299.824	81230
299.798	81240
299.805	81250
299.823	81260
299.812	81270
299.786	81280
299.848	81290
299.826	81300
299.798	81310
299.793	81320
299.804	81330
299.854	81340
299.817	81350
299.836	81360
299.795	81370
299.806	81380
299.846	81390
299.78	81400
299.839	81410
299.816	81420
299.81	81430
299.853	81440
299.839	81450
299.838	81460
299.81	81470
299.814	81480
299.832	81490
299.786	81500
299.827	81510
299.804	81520
299.825	81530
299.8	81540
299.849	81550
299.814	81560
299.842	81570
299.794	81580
299.803	81590
299.829	81600
299.808	81610
299.813	81620
299.857	81630
299.873	81640
299.876	81650
299.943	81660
299.98	81670
299.964	81680
299.935	81690
299.923	81700
299.876	81710
299.834	81720
299.828	81730
299.86	81740
299.84	81750
299.829	81760
299.676	81770
299.666	81780
300.246	81790
300.83	81800
300.201	81810
299.584	81820
299.531	81830
299.81	81840
299.837	81850
299.862	81860
299.888	81870
299.925	81880
299.946	81890
300.006	81900
300.024	81910
300.017	81920
299.978	81930
300.016	81940
299.928	81950
299.936	81960
299.928	81970
299.854	81980
299.844	81990
299.787	82000
299.832	82010
299.818	82020
299.822	82030
299.814	82040
299.827	82050
299.794	82060
299.81	82070
299.805	82080
299.791	82090
299.793	82100
299.787	82110
299.817	82120
299.836	82130
299.827	82140
299.809	82150
299.769	82160
299.805	82170
299.855	82180
299.82	82190
299.832	82200
299.797	82210
299.799	82220
299.817	82230
299.831	82240
299.835	82250
299.828	82260
299.799	82270
299.803	82280
299.783	82290
299.816	82300
299.813	82310
299.807	82320
299.83	82330
299.82	82340
299.793	82350
299.801	82360
299.861	82370
299.797	82380
299.823	82390
299.833	82400
299.803	82410
299.799	82420
299.843	82430
299.897	82440
299.919	82450
299.925	82460
299.921	82470
300.004	82480
299.971	82490
299.984	82500
299.878	82510
299.855	82520
299.835	82530
299.812	82540
299.844	82550
299.805	82560
299.67	82570
299.626	82580
300.26	82590
300.817	82600
300.209	82610
299.545	82620
299.589	82630
299.795	82640
299.885	82650
299.857	82660
299.899	82670
299.916	82680
299.941	82690
299.987	82700
299.972	82710
300.001	82720
299.986	82730
300.018	82740
299.956	82750
299.873	82760
299.868	82770
299.843	82780
299.861	82790
299.806	82800
299.814	82810
299.847	82820
299.841	82830
299.818	82840
299.854	82850
299.818	82860
299.812	82870
299.832	82880
299.858	82890
299.849	82900
299.827	82910
299.783	82920
299.806	82930
299.838	82940
299.852	82950
299.82	82960
299.845	82970
299.826	82980
299.862	82990
299.819	83000
299.828	83010
299.805	83020
299.787	83030
299.803	83040
299.842	83050
299.822	83060
299.832	83070
299.829	83080
299.817	83090
299.832	83100
299.848	83110
299.816	83120
299.773	83130
299.815	83140
299.811	83150
299.816	83160
299.82	83170
299.808	83180
299.838	83190
299.816	83200
299.78	83210
299.869	83220
299.823	83230
299.868	83240
299.869	83250
299.866	83260
299.945	83270
299.986	83280
299.94	83290
299.941	83300
299.897	83310
299.854	83320
299.825	83330
299.808	83340
299.823	83350
299.793	83360
299.612	83370
299.65	83380
300.245	83390
300.81	83400
300.209	83410
299.545	83420
299.562	83430
299.757	83440
299.851	83450
299.817	83460
299.87	83470
299.925	83480
299.95	83490
299.967	83500
300.025	83510
300.025	83520
300.011	83530
299.952	83540
299.953	83550
299.904	83560
299.898	83570
299.853	83580
299.839	83590
299.813	83600
299.807	83610
299.827	83620
299.834	83630
299.842	83640
299.796	83650
299.811	83660
299.81	83670
299.819	83680
299.786	83690
299.808	83700
299.827	83710
299.816	83720
299.829	83730
299.786	83740
299.787	83750
299.851	83760
299.831	83770
299.843	83780
299.78	83790
299.786	83800
299.823	83810
299.768	83820
299.816	83830
299.79	83840
299.8	83850
299.825	83860
299.822	83870
299.776	83880
299.826	83890
299.798	83900
299.843	83910
299.792	83920
299.791	83930
299.775	83940
299.812	83950
299.845	83960
299.826	83970
299.807	83980
299.859	83990
299.814	84000
299.848	84010
299.81	84020
299.802	84030
299.817	84040
299.873	84050
299.908	84060
299.913	84070
299.986	84080
299.973	84090
299.916	84100
299.915	84110
299.855	84120
299.843	84130
299.807	84140
299.842	84150
299.789	84160
299.628	84170
299.646	84180
300.234	84190
300.829	84200
300.211	84210
299.574	84220
299.532	84230
299.806	84240
299.817	84250
299.853	84260
299.894	84270
299.886	84280
299.936	84290
299.968	84300
300.021	84310
300.018	84320
299.996	84330
299.952	84340
299.909	84350
299.906	84360
299.861	84370
299.839	84380
299.805	84390
299.807	84400
299.817	84410
299.74	84420
299.816	84430
299.8	84440
299.847	84450
299.817	84460
299.825	84470
299.793	84480
299.805	84490
299.794	84500
299.82	84510
299.848	84520
299.832	84530
299.747	84540
299.841	84550
299.787	84560
299.796	84570
299.822	84580
299.785	84590
299.81	84600
299.78	84610
299.792	84620
299.829	84630
299.799	84640
299.789	84650
299.79	84660
299.759	84670
299.805	84680
299.806	84690
299.786	84700
299.811	84710
299.786	84720
299.81	84730
299.793	84740
299.803	84750
299.845	84760
299.803	84770
299.835	84780
299.834	84790
299.775	84800
299.814	84810
299.788	84820
299.829	84830
299.855	84840
299.815	84850
299.921	84860
299.955	84870
299.937	84880
299.937	84890
299.895	84900
299.824	84910
299.836	84920
299.803	84930
299.766	84940
299.799	84950
299.741	84960
299.627	84970
299.641	84980
300.24	84990
300.829	85000
300.173	85010
299.55	85020
299.562	85030
299.797	85040
299.824	85050
299.825	85060
299.851	85070
299.875	85080
299.959	85090
299.966	85100
300.028	85110
299.989	85120
300.023	85130
299.971	85140
299.938	85150
299.902	85160
299.838	85170
299.828	85180
299.816	85190
299.838	85200
299.822	85210
299.817	85220
299.783	85230
299.769	85240
299.788	85250
299.834	85260
299.808	85270
299.782	85280
299.794	85290
299.792	85300
299.743	85310
299.759	85320
299.776	85330
299.771	85340
299.791	85350
299.766	85360
299.782	85370
299.78	85380
299.821	85390
299.8	85400
299.796	85410
299.752	85420
299.814	85430
299.798	85440
299.819	85450
299.8	85460
299.764	85470
299.808	85480
299.807	85490
299.768	85500
299.83	85510
299.825	85520
299.791	85530
299.78	85540
299.792	85550
299.79	85560
299.793	85570
299.781	85580
299.803	85590
299.789	85600
299.79	85610
299.75	85620
299.822	85630
299.835	85640
299.852	85650
299.915	85660
299.941	85670
299.947	85680
299.925	85690
299.897	85700
299.891	85710
299.853	85720
299.815	85730
299.786	85740
299.775	85750
299.828	85760
299.636	85770
299.656	85780
300.238	85790
300.811	85800
300.145	85810
299.516	85820
299.527	85830
299.727	85840
299.824	85850
299.774	85860
299.861	85870
299.871	85880
299.916	85890
299.962	85900
299.931	85910
300.02	85920
299.975	85930
299.996	85940
299.902	85950
299.898	85960
299.845	85970
299.815	85980
299.826	85990
299.784	86000
299.791	86010
299.805	86020
299.841	86030
299.806	86040
299.797	86050
299.763	86060
299.759	86070
299.796	86080
299.784	86090
299.79	86100
299.795	86110
299.802	86120
299.809	86130
299.789	86140
299.821	86150
299.786	86160
299.792	86170
299.777	86180
299.791	86190
299.766	86200
299.772	86210
299.753	86220
299.794	86230
299.788	86240
299.803	86250
299.77	86260
299.808	86270
299.808	86280
299.802	86290
299.814	86300
299.782	86310
299.827	86320
299.793	86330
299.797	86340
299.782	86350
299.79	86360
299.776	86370
299.779	86380
299.778	86390
299.774	86400
299.781	86410
299.769	86420
299.809	86430
299.808	86440
299.884	86450
299.9	86460
299.936	86470
299.92	86480
299.901	86490
299.856	86500
299.817	86510
299.794	86520
299.794	86530
299.786	86540
299.808	86550
299.748	86560
299.637	86570
299.617	86580
300.223	86590
300.769	86600
300.134	86610
299.491	86620
299.512	86630
299.78	86640
299.829	86650
299.814	86660
299.87	86670
299.847	86680
299.929	86690
299.965	86700
299.947	86710
299.957	86720
299.995	86730
299.923	86740
299.931	86750
299.902	86760
299.804	86770
299.864	86780
299.797	86790
299.767	86800
299.794	86810
299.723	86820
299.808	86830
299.792	86840
299.801	86850
299.801	86860
299.774	86870
299.759	86880
299.743	86890
299.765	86900
299.758	86910
299.797	86920
299.789	86930
299.784	86940
299.763	86950
299.768	86960
299.783	86970
299.777	86980
299.76	86990
299.787	87000
299.795	87010
299.801	87020
299.766	87030
299.794	87040
299.802	87050
299.774	87060
299.806	87070
299.749	87080
299.75	87090
299.778	87100
299.78	87110
299.788	87120
299.789	87130
299.757	87140
299.807	87150
299.836	87160
299.815	87170
299.775	87180
299.754	87190
