300.997	0
300.994	10
301.001	20
301.023	30
301.028	40
301.043	50
301.07	60
301.098	70
301.109	80
301.146	90
301.129	100
301.102	110
301.088	120
301.021	130
301.009	140
301.039	150
300.994	160
301.003	170
300.979	180
300.805	190
300.885	200
301.46	210
301.971	220
301.504	230
300.867	240
300.663	250
300.9	260
300.991	270
301.038	280
301.06	290
301.074	300
301.087	310
301.112	320
301.159	330
301.185	340
301.193	350
301.225	360
301.192	370
301.179	380
301.128	390
301.094	400
301.081	410
301.034	420
301.032	430
301.005	440
301.024	450
301.018	460
301.017	470
300.996	480
301.012	490
300.991	500
300.973	510
300.996	520
301.011	530
301.019	540
301.008	550
301.0	560
301.006	570
301.009	580
300.974	590
301.016	600
301.02	610
300.975	620
300.989	630
301.011	640
301.001	650
301.011	660
301.003	670
301.015	680
301.033	690
301.003	700
301.011	710
301.005	720
300.985	730
301.002	740
301.023	750
301.017	760
301.022	770
301.014	780
301.019	790
301.0	800
300.991	810
301.012	820
301.0	830
301.015	840
301.01	850
301.026	860
300.999	870
301.018	880
301.015	890
300.995	900
300.984	910
301.032	920
301.08	930
301.093	940
301.116	950
301.132	960
301.157	970
301.153	980
301.138	990
301.044	1000
301.051	1010
301.041	1020
300.997	1030
301.003	1040
301.024	1050
300.985	1060
300.867	1070
300.813	1080
301.327	1090
301.953	1100
301.721	1110
300.981	1120
300.682	1130
300.862	1140
301.023	1150
301.019	1160
301.05	1170
301.063	1180
301.111	1190
301.142	1200
301.19	1210
301.199	1220
301.195	1230
301.229	1240
301.203	1250
301.176	1260
301.15	1270
301.07	1280
301.089	1290
301.055	1300
301.04	1310
301.044	1320
301.025	1330
301.042	1340
301.003	1350
301.034	1360
300.997	1370
301.002	1380
301.015	1390
301.001	1400
300.977	1410
301.008	1420
301.02	1430
301.01	1440
301.039	1450
301.02	1460
301.022	1470
301.003	1480
301.023	1490
301.01	1500
300.98	1510
301.002	1520
301.003	1530
301.008	1540
301.039	1550
301.024	1560
301.031	1570
300.99	1580
301.067	1590
301.024	1600
301.035	1610
301.01	1620
300.999	1630
301.021	1640
300.994	1650
301.031	1660
300.988	1670
301.011	1680
301.031	1690
301.031	1700
301.037	1710
301.001	1720
301.0	1730
301.019	1740
301.056	1750
301.031	1760
301.019	1770
301.012	1780
301.042	1790
301.035	1800
301.044	1810
301.116	1820
301.13	1830
301.141	1840
301.156	1850
301.154	1860
301.118	1870
301.117	1880
301.091	1890
301.029	1900
301.053	1910
301.019	1920
301.019	1930
300.982	1940
300.901	1950
300.777	1960
301.149	1970
301.839	1980
301.859	1990
301.125	2000
300.719	2010
300.781	2020
300.991	2030
301.042	2040
301.029	2050
301.081	2060
301.122	2070
301.134	2080
301.171	2090
301.214	2100
301.213	2110
301.227	2120
301.181	2130
301.182	2140
301.158	2150
301.123	2160
301.09	2170
301.038	2180
301.067	2190
301.042	2200
301.063	2210
300.991	2220
301.014	2230
300.975	2240
301.023	2250
301.008	2260
301.001	2270
301.019	2280
301.014	2290
301.017	2300
301.026	2310
301.009	2320
301.017	2330
301.035	2340
301.024	2350
300.985	2360
301.037	2370
301.025	2380
301.003	2390
301.028	2400
301.025	2410
300.977	2420
301.047	2430
301.016	2440
300.985	2450
301.018	2460
301.007	2470
301.03	2480
301.015	2490
301.017	2500
301.019	2510
301.01	2520
301.032	2530
301.004	2540
301.003	2550
301.022	2560
301.026	2570
301.034	2580
301.007	2590
301.027	2600
300.99	2610
301.019	2620
300.992	2630
301.0	2640
301.013	2650
301.024	2660
301.057	2670
301.03	2680
301.059	2690
301.092	2700
301.122	2710
301.148	2720
301.164	2730
301.145	2740
301.135	2750
301.087	2760
301.077	2770
301.061	2780
301.045	2790
301.037	2800
301.015	2810
301.02	2820
300.971	2830
300.767	2840
301.043	2850
301.688	2860
301.969	2870
301.287	2880
300.794	2890
300.742	2900
300.955	2910
301.035	2920
301.05	2930
301.054	2940
301.115	2950
301.105	2960
301.177	2970
301.188	2980
301.208	2990
301.21	3000
301.181	3010
301.187	3020
301.138	3030
301.12	3040
301.09	3050
301.079	3060
301.045	3070
301.061	3080
301.036	3090
301.018	3100
301.02	3110
301.007	3120
301.011	3130
301.001	3140
301.011	3150
301.016	3160
301.014	3170
301.021	3180
301.009	3190
301.031	3200
301.037	3210
300.994	3220
300.965	3230
300.984	3240
301.017	3250
301.024	3260
301.021	3270
301.013	3280
301.018	3290
301.023	3300
301.02	3310
301.023	3320
300.994	3330
301.039	3340
300.997	3350
301.01	3360
301.037	3370
301.02	3380
301.031	3390
301.04	3400
301.054	3410
301.028	3420
301.017	3430
300.987	3440
301.038	3450
301.027	3460
301.019	3470
301.014	3480
301.018	3490
301.03	3500
300.99	3510
301.008	3520
300.989	3530
300.998	3540
301.024	3550
301.041	3560
301.066	3570
301.072	3580
301.095	3590
301.119	3600
301.186	3610
301.168	3620
301.108	3630
301.137	3640
301.112	3650
301.047	3660
301.017	3670
300.982	3680
301.014	3690
301.033	3700
300.984	3710
300.77	3720
300.957	3730
301.514	3740
302.014	3750
301.49	3760
300.838	3770
300.707	3780
300.922	3790
301.023	3800
301.017	3810
301.071	3820
301.068	3830
301.126	3840
301.154	3850
301.175	3860
301.191	3870
301.219	3880
301.217	3890
301.185	3900
301.131	3910
301.132	3920
301.089	3930
301.065	3940
301.041	3950
301.017	3960
301.052	3970
301.016	3980
300.977	3990
301.03	4000
300.985	4010
300.998	4020
300.998	4030
300.996	4040
301.011	4050
301.016	4060
301.019	4070
301.017	4080
301.008	4090
300.995	4100
300.997	4110
301.021	4120
301.013	4130
301.028	4140
300.979	4150
301.024	4160
301.017	4170
301.017	4180
301.028	4190
301.014	4200
301.021	4210
301.033	4220
300.998	4230
300.999	4240
301.003	4250
300.998	4260
301.003	4270
300.992	4280
300.988	4290
301.028	4300
301.036	4310
301.013	4320
301.026	4330
301.015	4340
300.988	4350
300.976	4360
301.025	4370
300.99	4380
300.992	4390
300.991	4400
301.033	4410
301.028	4420
300.985	4430
301.03	4440
301.014	4450
301.072	4460
301.094	4470
301.114	4480
301.172	4490
301.169	4500
301.139	4510
301.083	4520
301.076	4530
301.082	4540
301.03	4550
301.021	4560
300.994	4570
301.024	4580
300.975	4590
300.846	4600
300.848	4610
301.336	4620
301.943	4630
301.667	4640
300.953	4650
300.638	4660
300.859	4670
301.005	4680
301.031	4690
301.027	4700
301.039	4710
301.1	4720
301.142	4730
301.143	4740
301.197	4750
301.213	4760
301.193	4770
301.145	4780
301.141	4790
301.101	4800
301.082	4810
301.056	4820
301.05	4830
301.031	4840
301.016	4850
301.017	4860
300.999	4870
301.008	4880
300.981	4890
301.021	4900
300.996	4910
301.011	4920
301.034	4930
300.976	4940
300.986	4950
301.001	4960
300.981	4970
301.012	4980
301.012	4990
300.996	5000
300.994	5010
300.995	5020
301.011	5030
301.017	5040
301.001	5050
300.991	5060
300.996	5070
300.988	5080
301.0	5090
300.983	5100
301.007	5110
300.983	5120
300.989	5130
301.006	5140
300.986	5150
300.954	5160
301.009	5170
301.001	5180
301.034	5190
300.991	5200
300.985	5210
301.038	5220
301.026	5230
300.989	5240
301.0	5250
301.004	5260
301.027	5270
300.978	5280
301.018	5290
301.012	5300
301.014	5310
300.988	5320
301.016	5330
301.011	5340
301.074	5350
301.106	5360
301.164	5370
301.133	5380
301.157	5390
301.104	5400
301.071	5410
301.033	5420
301.041	5430
300.996	5440
301.003	5450
301.014	5460
300.968	5470
300.857	5480
300.757	5490
301.182	5500
301.871	5510
301.818	5520
301.075	5530
300.666	5540
300.795	5550
300.987	5560
301.038	5570
301.036	5580
301.052	5590
301.084	5600
301.12	5610
301.129	5620
301.135	5630
301.181	5640
301.184	5650
301.192	5660
301.167	5670
301.1	5680
301.102	5690
301.073	5700
301.02	5710
301.028	5720
301.019	5730
301.007	5740
300.987	5750
301.027	5760
301.003	5770
300.963	5780
300.994	5790
300.962	5800
301.007	5810
300.967	5820
300.992	5830
300.976	5840
300.976	5850
300.959	5860
300.979	5870
300.984	5880
300.985	5890
301.029	5900
300.97	5910
300.986	5920
300.984	5930
300.966	5940
301.004	5950
301.015	5960
300.989	5970
300.987	5980
300.998	5990
300.978	6000
300.986	6010
301.003	6020
300.98	6030
301.003	6040
301.001	6050
301.011	6060
300.966	6070
300.976	6080
300.987	6090
300.98	6100
300.975	6110
300.99	6120
300.976	6130
300.964	6140
300.98	6150
301.004	6160
301.011	6170
300.996	6180
300.989	6190
301.021	6200
300.994	6210
300.994	6220
301.061	6230
301.092	6240
301.103	6250
301.137	6260
301.133	6270
301.103	6280
301.086	6290
301.037	6300
301.012	6310
300.998	6320
301.003	6330
300.969	6340
300.963	6350
300.866	6360
300.758	6370
301.023	6380
301.712	6390
301.924	6400
301.234	6410
300.712	6420
300.688	6430
300.907	6440
301.007	6450
301.015	6460
301.011	6470
301.053	6480
301.094	6490
301.115	6500
301.174	6510
301.168	6520
301.18	6530
301.175	6540
301.153	6550
301.084	6560
301.097	6570
301.056	6580
301.04	6590
301.007	6600
300.979	6610
301.019	6620
300.981	6630
300.994	6640
300.994	6650
300.998	6660
300.979	6670
301.0	6680
300.968	6690
300.996	6700
300.982	6710
300.986	6720
300.946	6730
300.962	6740
300.979	6750
300.978	6760
300.974	6770
300.993	6780
300.966	6790
301.004	6800
300.997	6810
300.984	6820
300.984	6830
301.019	6840
300.982	6850
300.995	6860
300.988	6870
300.984	6880
300.985	6890
300.985	6900
300.978	6910
300.967	6920
300.947	6930
300.992	6940
301.005	6950
300.976	6960
300.998	6970
300.977	6980
300.983	6990
301.006	7000
300.984	7010
300.972	7020
300.991	7030
300.975	7040
300.976	7050
300.975	7060
300.947	7070
300.952	7080
300.989	7090
301.017	7100
301.003	7110
301.065	7120
301.087	7130
301.148	7140
301.129	7150
301.132	7160
301.063	7170
301.03	7180
301.033	7190
301.016	7200
300.98	7210
300.996	7220
300.97	7230
300.917	7240
300.771	7250
300.918	7260
301.522	7270
301.922	7280
301.357	7290
300.788	7300
300.679	7310
300.883	7320
301.001	7330
301.005	7340
301.008	7350
301.037	7360
301.062	7370
301.102	7380
301.135	7390
301.177	7400
301.178	7410
301.118	7420
301.142	7430
301.103	7440
301.089	7450
301.047	7460
301.024	7470
301.007	7480
300.985	7490
301.005	7500
300.99	7510
301.007	7520
300.991	7530
301.003	7540
300.996	7550
301.001	7560
300.982	7570
300.96	7580
300.968	7590
300.97	7600
300.952	7610
300.946	7620
301.008	7630
301.0	7640
300.987	7650
300.963	7660
300.987	7670
300.957	7680
300.975	7690
300.961	7700
300.988	7710
300.985	7720
300.965	7730
300.966	7740
300.977	7750
300.967	7760
301.01	7770
300.988	7780
301.001	7790
300.985	7800
300.949	7810
301.0	7820
300.98	7830
300.986	7840
300.999	7850
300.994	7860
300.979	7870
300.994	7880
300.986	7890
300.976	7900
300.965	7910
300.994	7920
300.985	7930
300.984	7940
300.991	7950
300.979	7960
301.008	7970
301.01	7980
301.028	7990
301.068	8000
301.09	8010
301.113	8020
301.132	8030
301.129	8040
301.109	8050
301.06	8060
301.038	8070
301.008	8080
300.989	8090
300.972	8100
301.004	8110
300.965	8120
300.804	8130
300.834	8140
301.376	8150
301.943	8160
301.567	8170
300.882	8180
300.612	8190
300.832	8200
301.023	8210
301.034	8220
301.013	8230
301.06	8240
301.053	8250
301.092	8260
301.142	8270
301.218	8280
301.195	8290
301.166	8300
301.167	8310
301.13	8320
301.127	8330
301.084	8340
301.046	8350
301.048	8360
300.968	8370
300.972	8380
300.992	8390
300.972	8400
300.972	8410
300.972	8420
300.967	8430
301.008	8440
300.984	8450
300.982	8460
301.014	8470
300.999	8480
300.982	8490
300.969	8500
300.997	8510
300.957	8520
300.98	8530
300.969	8540
300.996	8550
300.984	8560
300.98	8570
300.981	8580
301.026	8590
300.987	8600
300.989	8610
300.989	8620
300.961	8630
300.956	8640
300.975	8650
300.987	8660
300.995	8670
300.978	8680
300.968	8690
300.956	8700
300.975	8710
300.982	8720
301.013	8730
301.002	8740
300.965	8750
300.956	8760
300.999	8770
301.029	8780
300.987	8790
300.987	8800
301.0	8810
300.995	8820
301.009	8830
300.986	8840
300.988	8850
301.037	8860
301.016	8870
301.065	8880
301.058	8890
301.136	8900
301.113	8910
301.144	8920
301.089	8930
301.057	8940
301.075	8950
301.03	8960
300.995	8970
301.013	8980
300.977	8990
300.994	9000
300.857	9010
300.737	9020
301.221	9030
301.888	9040
301.788	9050
301.003	9060
300.673	9070
300.814	9080
300.976	9090
300.985	9100
301.04	9110
301.069	9120
301.069	9130
301.104	9140
301.135	9150
301.166	9160
301.222	9170
301.206	9180
301.153	9190
301.148	9200
301.087	9210
301.079	9220
301.07	9230
301.034	9240
301.015	9250
300.998	9260
300.986	9270
300.989	9280
300.981	9290
300.985	9300
301.032	9310
301.01	9320
301.002	9330
300.991	9340
301.026	9350
300.986	9360
300.976	9370
300.969	9380
300.994	9390
300.966	9400
301.016	9410
300.994	9420
300.983	9430
300.987	9440
300.972	9450
300.986	9460
300.983	9470
301.01	9480
301.02	9490
300.978	9500
300.996	9510
301.038	9520
300.989	9530
300.998	9540
300.985	9550
301.004	9560
300.989	9570
300.989	9580
300.995	9590
300.995	9600
300.952	9610
300.982	9620
301.033	9630
300.977	9640
300.995	9650
300.98	9660
301.031	9670
300.969	9680
300.992	9690
300.992	9700
301.003	9710
301.008	9720
301.021	9730
301.019	9740
301.059	9750
301.036	9760
301.116	9770
301.124	9780
301.136	9790
301.16	9800
301.124	9810
301.097	9820
301.064	9830
301.046	9840
301.002	9850
300.99	9860
301.024	9870
301.025	9880
300.886	9890
300.804	9900
301.094	9910
301.735	9920
301.913	9930
301.185	9940
300.707	9950
300.743	9960
300.995	9970
301.01	9980
301.058	9990
301.038	10000
301.088	10010
301.106	10020
301.134	10030
301.169	10040
301.21	10050
301.174	10060
301.196	10070
301.167	10080
301.146	10090
301.097	10100
301.073	10110
301.032	10120
301.024	10130
301.01	10140
301.024	10150
301.0	10160
300.995	10170
301.003	10180
300.993	10190
301.013	10200
301.02	10210
301.025	10220
301.003	10230
301.024	10240
301.019	10250
301.001	10260
300.988	10270
301.014	10280
300.993	10290
301.0	10300
301.01	10310
301.011	10320
301.005	10330
300.984	10340
300.976	10350
300.998	10360
300.983	10370
300.993	10380
301.006	10390
300.985	10400
301.016	10410
300.997	10420
301.024	10430
301.013	10440
301.023	10450
300.99	10460
300.989	10470
301.043	10480
301.001	10490
300.988	10500
300.984	10510
301.015	10520
301.02	10530
301.002	10540
301.022	10550
301.024	10560
301.019	10570
301.001	10580
301.035	10590
300.982	10600
301.008	10610
301.026	10620
301.039	10630
301.058	10640
301.09	10650
301.125	10660
301.163	10670
301.167	10680
301.176	10690
301.103	10700
301.077	10710
301.047	10720
301.005	10730
300.994	10740
301.005	10750
301.021	10760
300.946	10770
300.794	10780
300.98	10790
301.599	10800
301.946	10810
301.383	10820
300.804	10830
300.749	10840
300.89	10850
301.024	10860
301.027	10870
301.069	10880
301.088	10890
301.114	10900
301.14	10910
301.189	10920
301.195	10930
301.223	10940
301.174	10950
301.182	10960
301.127	10970
301.152	10980
301.07	10990
301.097	11000
301.071	11010
301.023	11020
301.04	11030
301.004	11040
301.045	11050
301.027	11060
301.036	11070
300.999	11080
301.014	11090
301.007	11100
301.031	11110
301.01	11120
301.038	11130
301.003	11140
301.011	11150
301.016	11160
301.004	11170
301.037	11180
301.024	11190
301.036	11200
301.014	11210
301.011	11220
300.973	11230
301.006	11240
301.004	11250
301.013	11260
301.015	11270
301.023	11280
301.016	11290
301.017	11300
301.012	11310
301.043	11320
301.037	11330
301.014	11340
301.029	11350
301.01	11360
301.012	11370
301.022	11380
301.004	11390
301.012	11400
301.019	11410
300.983	11420
301.008	11430
300.99	11440
301.007	11450
301.029	11460
301.013	11470
301.027	11480
301.004	11490
301.058	11500
301.066	11510
301.047	11520
301.106	11530
301.114	11540
301.134	11550
301.12	11560
301.16	11570
301.114	11580
301.078	11590
301.053	11600
301.043	11610
301.033	11620
301.034	11630
301.008	11640
300.996	11650
300.847	11660
300.877	11670
301.417	11680
301.987	11690
301.55	11700
300.896	11710
300.694	11720
300.88	11730
301.021	11740
301.022	11750
301.027	11760
301.054	11770
301.112	11780
301.169	11790
301.197	11800
301.221	11810
301.196	11820
301.174	11830
301.2	11840
301.141	11850
301.136	11860
301.117	11870
301.076	11880
301.082	11890
301.023	11900
301.029	11910
301.016	11920
301.016	11930
301.049	11940
301.023	11950
301.036	11960
301.045	11970
301.025	11980
301.008	11990
301.013	12000
301.033	12010
301.046	12020
301.029	12030
301.026	12040
301.011	12050
301.019	12060
300.995	12070
300.99	12080
300.998	12090
301.034	12100
301.023	12110
301.025	12120
300.996	12130
301.022	12140
301.014	12150
301.032	12160
301.064	12170
301.006	12180
301.014	12190
300.997	12200
301.01	12210
301.022	12220
301.022	12230
301.03	12240
301.021	12250
301.006	12260
301.009	12270
301.041	12280
301.039	12290
301.001	12300
300.981	12310
300.992	12320
301.029	12330
301.012	12340
301.0	12350
301.047	12360
301.012	12370
301.035	12380
301.04	12390
301.034	12400
301.106	12410
301.099	12420
301.175	12430
301.191	12440
301.181	12450
301.127	12460
301.078	12470
301.058	12480
301.054	12490
301.03	12500
301.044	12510
301.022	12520
301.023	12530
300.859	12540
300.816	12550
301.297	12560
301.936	12570
301.739	12580
301.014	12590
300.661	12600
300.834	12610
301.027	12620
301.056	12630
301.062	12640
301.082	12650
301.097	12660
301.145	12670
301.167	12680
301.202	12690
301.234	12700
301.201	12710
301.188	12720
301.163	12730
301.17	12740
301.133	12750
301.066	12760
301.037	12770
301.048	12780
301.013	12790
301.041	12800
301.013	12810
301.038	12820
301.032	12830
301.035	12840
301.036	12850
301.019	12860
301.014	12870
301.037	12880
301.037	12890
301.032	12900
301.004	12910
301.002	12920
301.007	12930
301.023	12940
301.011	12950
301.016	12960
301.003	12970
301.024	12980
301.024	12990
301.008	13000
301.054	13010
301.055	13020
301.018	13030
301.025	13040
300.982	13050
301.002	13060
301.035	13070
301.048	13080
301.025	13090
301.012	13100
301.005	13110
301.019	13120
301.041	13130
301.05	13140
300.992	13150
300.99	13160
301.005	13170
301.005	13180
301.0	13190
301.036	13200
300.989	13210
301.026	13220
301.031	13230
301.015	13240
301.024	13250
301.053	13260
301.054	13270
301.068	13280
301.076	13290
301.118	13300
301.142	13310
301.157	13320
301.134	13330
301.141	13340
301.105	13350
301.064	13360
301.043	13370
301.067	13380
301.004	13390
301.016	13400
300.988	13410
300.878	13420
300.818	13430
301.132	13440
301.776	13450
301.904	13460
301.178	13470
300.687	13480
300.768	13490
300.974	13500
301.016	13510
301.033	13520
301.059	13530
301.107	13540
301.12	13550
301.18	13560
301.168	13570
301.222	13580
301.218	13590
301.211	13600
301.18	13610
301.132	13620
301.097	13630
301.086	13640
301.085	13650
301.037	13660
301.039	13670
301.034	13680
301.03	13690
301.019	13700
301.003	13710
301.017	13720
301.017	13730
301.002	13740
301.031	13750
300.984	13760
301.015	13770
301.034	13780
301.023	13790
301.019	13800
301.035	13810
300.997	13820
301.003	13830
300.999	13840
301.003	13850
300.996	13860
300.997	13870
301.026	13880
301.026	13890
301.011	13900
301.008	13910
301.032	13920
301.041	13930
301.019	13940
301.005	13950
301.012	13960
301.012	13970
301.031	13980
300.991	13990
301.031	14000
301.029	14010
301.009	14020
301.028	14030
300.989	14040
300.993	14050
301.009	14060
301.03	14070
301.026	14080
300.996	14090
301.027	14100
301.001	14110
300.985	14120
300.994	14130
301.027	14140
301.004	14150
301.019	14160
301.058	14170
301.093	14180
301.146	14190
301.127	14200
301.167	14210
301.125	14220
301.099	14230
301.066	14240
301.049	14250
301.044	14260
301.012	14270
301.002	14280
301.006	14290
300.991	14300
300.784	14310
301.009	14320
301.637	14330
301.933	14340
301.311	14350
300.784	14360
300.738	14370
300.955	14380
301.004	14390
301.018	14400
301.051	14410
301.08	14420
301.101	14430
301.135	14440
301.168	14450
301.221	14460
301.21	14470
301.202	14480
301.167	14490
301.152	14500
301.099	14510
301.078	14520
301.062	14530
301.008	14540
301.027	14550
301.003	14560
301.004	14570
300.995	14580
301.019	14590
301.01	14600
301.015	14610
301.005	14620
300.994	14630
300.991	14640
301.036	14650
301.014	14660
300.993	14670
300.993	14680
300.992	14690
301.013	14700
301.007	14710
301.001	14720
301.004	14730
301.003	14740
301.024	14750
301.01	14760
301.015	14770
300.963	14780
301.033	14790
300.991	14800
300.994	14810
301.017	14820
300.98	14830
301.01	14840
301.032	14850
301.023	14860
300.997	14870
300.987	14880
301.014	14890
301.027	14900
301.036	14910
301.012	14920
301.018	14930
300.995	14940
300.957	14950
300.994	14960
300.988	14970
301.012	14980
301.017	14990
300.96	15000
301.013	15010
300.999	15020
301.002	15030
301.03	15040
301.038	15050
301.071	15060
301.13	15070
301.118	15080
301.143	15090
301.158	15100
301.125	15110
301.093	15120
301.045	15130
300.989	15140
301.012	15150
301.011	15160
301.006	15170
300.971	15180
300.78	15190
300.897	15200
301.447	15210
301.943	15220
301.517	15230
300.82	15240
300.67	15250
300.89	15260
301.025	15270
301.028	15280
301.047	15290
301.076	15300
301.082	15310
301.134	15320
301.175	15330
301.16	15340
301.203	15350
301.17	15360
301.173	15370
301.148	15380
301.08	15390
301.052	15400
301.024	15410
301.029	15420
301.008	15430
300.992	15440
300.999	15450
301.008	15460
300.997	15470
301.011	15480
301.028	15490
301.005	15500
301.009	15510
300.988	15520
300.989	15530
300.982	15540
301.02	15550
300.993	15560
301.022	15570
300.973	15580
300.996	15590
301.022	15600
300.986	15610
300.972	15620
301.018	15630
300.963	15640
301.017	15650
300.984	15660
300.984	15670
300.988	15680
300.976	15690
300.996	15700
300.966	15710
301.015	15720
301.032	15730
301.004	15740
300.99	15750
301.003	15760
301.003	15770
301.017	15780
300.948	15790
301.018	15800
300.942	15810
300.995	15820
301.007	15830
300.994	15840
301.013	15850
301.0	15860
300.993	15870
301.013	15880
300.974	15890
300.924	15900
300.988	15910
301.014	15920
301.02	15930
301.07	15940
301.144	15950
301.138	15960
301.154	15970
301.104	15980
301.085	15990
301.078	16000
301.026	16010
301.039	16020
300.992	16030
300.994	16040
300.992	16050
301.008	16060
300.84	16070
300.786	16080
301.268	16090
301.962	16100
301.682	16110
300.944	16120
300.67	16130
300.803	16140
301.017	16150
301.038	16160
301.006	16170
301.036	16180
301.082	16190
301.118	16200
301.142	16210
301.166	16220
301.182	16230
301.178	16240
301.167	16250
301.123	16260
301.127	16270
301.078	16280
301.085	16290
301.011	16300
301.028	16310
301.002	16320
300.963	16330
300.982	16340
300.982	16350
300.953	16360
300.974	16370
300.941	16380
300.978	16390
301.019	16400
300.974	16410
301.003	16420
300.963	16430
301.015	16440
300.978	16450
300.998	16460
300.985	16470
300.978	16480
300.984	16490
300.979	16500
300.992	16510
300.967	16520
300.976	16530
300.994	16540
300.996	16550
300.986	16560
300.963	16570
301.011	16580
300.984	16590
301.002	16600
300.99	16610
300.984	16620
300.968	16630
300.972	16640
300.99	16650
300.972	16660
300.962	16670
301.002	16680
300.97	16690
300.964	16700
300.992	16710
300.982	16720
300.982	16730
300.982	16740
300.979	16750
301.01	16760
301.001	16770
300.952	16780
300.968	16790
301.011	16800
301.003	16810
301.088	16820
301.087	16830
301.137	16840
301.117	16850
301.111	16860
301.103	16870
301.074	16880
301.055	16890
301.009	16900
301.007	16910
300.988	16920
300.961	16930
301.002	16940
300.856	16950
300.755	16960
301.118	16970
301.797	16980
301.829	16990
301.085	17000
300.657	17010
300.734	17020
300.974	17030
301.011	17040
300.983	17050
301.029	17060
301.069	17070
301.114	17080
301.144	17090
301.132	17100
301.197	17110
301.187	17120
301.181	17130
301.155	17140
301.121	17150
301.096	17160
301.021	17170
301.004	17180
300.994	17190
300.965	17200
300.967	17210
300.997	17220
300.986	17230
300.947	17240
300.987	17250
300.976	17260
300.971	17270
300.972	17280
300.995	17290
301.005	17300
300.942	17310
300.996	17320
300.997	17330
300.98	17340
300.983	17350
300.988	17360
300.969	17370
301.004	17380
301.008	17390
301.009	17400
300.992	17410
300.962	17420
300.994	17430
301.001	17440
300.98	17450
300.968	17460
300.992	17470
300.954	17480
300.986	17490
300.983	17500
300.987	17510
300.955	17520
301.003	17530
300.956	17540
300.959	17550
300.976	17560
300.973	17570
301.016	17580
300.986	17590
300.968	17600
301.005	17610
300.978	17620
300.959	17630
300.961	17640
300.981	17650
300.959	17660
300.998	17670
300.991	17680
301.002	17690
301.046	17700
301.074	17710
301.085	17720
301.149	17730
301.126	17740
301.121	17750
301.1	17760
301.038	17770
301.011	17780
300.997	17790
301.0	17800
300.987	17810
301.01	17820
300.916	17830
300.738	17840
301.006	17850
301.66	17860
301.922	17870
301.24	17880
300.745	17890
300.724	17900
300.921	17910
300.998	17920
300.998	17930
301.024	17940
301.03	17950
301.092	17960
301.112	17970
301.185	17980
301.159	17990
301.159	18000
301.162	18010
301.166	18020
301.106	18030
301.069	18040
301.063	18050
301.033	18060
301.02	18070
300.98	18080
301.0	18090
300.986	18100
300.989	18110
300.974	18120
300.964	18130
300.974	18140
300.989	18150
301.012	18160
300.972	18170
300.971	18180
301.006	18190
300.993	18200
300.976	18210
300.97	18220
300.977	18230
300.984	18240
300.988	18250
300.997	18260
300.98	18270
301.002	18280
300.968	18290
300.988	18300
300.976	18310
300.996	18320
300.978	18330
300.972	18340
301.021	18350
300.998	18360
300.998	18370
301.0	18380
300.982	18390
300.999	18400
300.976	18410
300.997	18420
300.954	18430
300.979	18440
300.987	18450
300.983	18460
301.004	18470
301.006	18480
300.972	18490
301.002	18500
300.994	18510
300.999	18520
300.972	18530
301.006	18540
301.013	18550
301.017	18560
301.023	18570
301.042	18580
301.078	18590
301.106	18600
301.102	18610
301.132	18620
301.142	18630
301.067	18640
301.037	18650
301.02	18660
301.021	18670
300.984	18680
300.99	18690
300.984	18700
300.946	18710
300.774	18720
300.881	18730
301.476	18740
301.943	18750
301.46	18760
300.766	18770
300.715	18780
300.851	18790
301.009	18800
301.02	18810
301.037	18820
301.004	18830
301.099	18840
301.115	18850
301.167	18860
301.15	18870
301.192	18880
301.175	18890
301.136	18900
301.142	18910
301.089	18920
301.099	18930
301.027	18940
300.991	18950
301.038	18960
300.973	18970
300.99	18980
301.004	18990
301.013	19000
300.992	19010
300.99	19020
301.023	19030
301.017	19040
300.982	19050
301.005	19060
300.993	19070
300.967	19080
300.97	19090
300.986	19100
300.965	19110
300.977	19120
300.998	19130
301.008	19140
300.983	19150
300.989	19160
300.991	19170
300.991	19180
300.987	19190
300.992	19200
301.007	19210
301.009	19220
301.01	19230
301.002	19240
301.008	19250
300.971	19260
300.973	19270
300.968	19280
300.995	19290
300.981	19300
300.979	19310
300.948	19320
301.011	19330
300.972	19340
301.03	19350
300.992	19360
300.977	19370
300.994	19380
300.987	19390
300.961	19400
300.987	19410
301.0	19420
300.979	19430
300.98	19440
301.032	19450
301.069	19460
301.084	19470
301.103	19480
301.109	19490
301.144	19500
301.144	19510
301.117	19520
301.044	19530
301.045	19540
301.031	19550
301.003	19560
300.993	19570
300.991	19580
300.947	19590
300.837	19600
300.845	19610
301.335	19620
301.918	19630
301.619	19640
300.905	19650
300.683	19660
300.853	19670
300.967	19680
301.019	19690
301.032	19700
301.053	19710
301.069	19720
301.115	19730
301.166	19740
301.186	19750
301.225	19760
301.209	19770
301.187	19780
301.158	19790
301.125	19800
301.085	19810
301.031	19820
301.056	19830
300.99	19840
301.005	19850
300.995	19860
300.998	19870
301.0	19880
301.031	19890
300.993	19900
300.99	19910
301.021	19920
301.013	19930
301.028	19940
301.018	19950
300.988	19960
301.004	19970
300.997	19980
301.006	19990
300.963	20000
301.001	20010
301.013	20020
300.994	20030
301.028	20040
301.016	20050
301.008	20060
300.967	20070
301.012	20080
300.969	20090
301.004	20100
300.965	20110
300.986	20120
301.035	20130
301.006	20140
300.992	20150
300.993	20160
301.0	20170
300.993	20180
301.006	20190
301.005	20200
300.979	20210
301.029	20220
301.008	20230
301.021	20240
300.996	20250
301.018	20260
301.014	20270
300.996	20280
301.023	20290
301.021	20300
301.004	20310
300.999	20320
301.005	20330
301.026	20340
301.071	20350
301.115	20360
301.13	20370
301.162	20380
301.149	20390
301.096	20400
301.069	20410
301.066	20420
301.023	20430
301.003	20440
300.997	20450
301.005	20460
300.994	20470
300.891	20480
300.783	20490
301.174	20500
301.847	20510
301.831	20520
301.078	20530
300.67	20540
300.814	20550
300.979	20560
300.996	20570
301.04	20580
301.061	20590
301.098	20600
301.119	20610
301.151	20620
301.223	20630
301.218	20640
301.185	20650
301.227	20660
301.172	20670
301.131	20680
301.079	20690
301.057	20700
301.07	20710
301.043	20720
300.984	20730
301.037	20740
300.99	20750
301.012	20760
301.003	20770
301.024	20780
301.025	20790
301.006	20800
301.014	20810
301.004	20820
301.012	20830
300.978	20840
301.007	20850
301.007	20860
301.006	20870
301.029	20880
300.99	20890
301.01	20900
301.004	20910
301.008	20920
300.989	20930
301.008	20940
301.015	20950
301.026	20960
301.026	20970
301.034	20980
301.02	20990
301.012	21000
300.985	21010
301.029	21020
300.983	21030
301.016	21040
300.997	21050
301.021	21060
301.003	21070
301.006	21080
301.017	21090
301.014	21100
301.009	21110
301.032	21120
300.962	21130
301.0	21140
301.009	21150
301.014	21160
301.019	21170
301.011	21180
301.027	21190
300.97	21200
301.056	21210
301.092	21220
301.073	21230
301.134	21240
301.111	21250
301.138	21260
301.159	21270
301.142	21280
301.108	21290
301.041	21300
301.043	21310
301.028	21320
301.019	21330
301.04	21340
301.008	21350
300.916	21360
300.747	21370
301.057	21380
301.721	21390
301.965	21400
301.247	21410
300.735	21420
300.77	21430
300.95	21440
301.013	21450
301.035	21460
301.106	21470
301.078	21480
301.104	21490
301.124	21500
301.179	21510
301.213	21520
301.211	21530
301.212	21540
301.187	21550
301.128	21560
301.104	21570
301.079	21580
301.072	21590
301.044	21600
301.031	21610
301.029	21620
301.033	21630
301.001	21640
301.016	21650
301.018	21660
301.008	21670
301.004	21680
301.01	21690
301.066	21700
301.02	21710
301.007	21720
301.049	21730
301.017	21740
301.015	21750
301.047	21760
301.015	21770
301.03	21780
301.021	21790
301.036	21800
300.977	21810
301.003	21820
301.019	21830
301.015	21840
301.0	21850
301.022	21860
300.985	21870
301.03	21880
301.027	21890
300.997	21900
300.999	21910
301.039	21920
301.011	21930
301.038	21940
301.037	21950
301.011	21960
301.015	21970
301.002	21980
300.999	21990
301.002	22000
301.052	22010
301.002	22020
301.008	22030
301.026	22040
301.026	22050
301.032	22060
301.013	22070
301.056	22080
301.031	22090
301.059	22100
301.057	22110
301.099	22120
301.132	22130
301.147	22140
301.202	22150
301.166	22160
301.116	22170
301.112	22180
301.04	22190
301.025	22200
301.038	22210
301.006	22220
301.03	22230
300.956	22240
300.776	22250
300.935	22260
301.538	22270
301.971	22280
301.388	22290
300.809	22300
300.704	22310
300.928	22320
301.021	22330
301.012	22340
301.059	22350
301.127	22360
301.122	22370
301.146	22380
301.202	22390
301.2	22400
301.206	22410
301.223	22420
301.202	22430
301.159	22440
301.124	22450
301.088	22460
301.054	22470
301.034	22480
301.043	22490
301.062	22500
301.013	22510
301.023	22520
301.009	22530
300.981	22540
301.049	22550
301.026	22560
301.022	22570
301.001	22580
301.011	22590
301.049	22600
301.023	22610
301.013	22620
301.015	22630
300.989	22640
301.021	22650
300.998	22660
301.024	22670
301.034	22680
301.019	22690
301.008	22700
301.048	22710
301.017	22720
301.004	22730
301.038	22740
301.032	22750
301.029	22760
301.012	22770
301.016	22780
301.049	22790
301.032	22800
301.022	22810
301.043	22820
301.044	22830
301.009	22840
301.012	22850
301.047	22860
301.023	22870
301.028	22880
301.042	22890
301.021	22900
300.991	22910
301.001	22920
301.019	22930
301.005	22940
301.02	22950
300.995	22960
301.024	22970
301.053	22980
301.088	22990
301.072	23000
301.138	23010
301.137	23020
301.188	23030
301.128	23040
301.131	23050
301.095	23060
301.075	23070
301.033	23080
301.027	23090
301.026	23100
301.02	23110
300.983	23120
300.832	23130
300.87	23140
301.392	23150
301.961	23160
301.618	23170
300.903	23180
300.681	23190
300.883	23200
301.024	23210
301.06	23220
301.067	23230
301.071	23240
301.106	23250
301.126	23260
301.164	23270
301.192	23280
301.201	23290
301.194	23300
301.182	23310
301.188	23320
301.121	23330
301.125	23340
301.071	23350
301.045	23360
301.049	23370
301.023	23380
300.999	23390
301.022	23400
301.008	23410
301.015	23420
301.023	23430
301.019	23440
300.994	23450
301.025	23460
301.052	23470
300.996	23480
301.043	23490
301.006	23500
301.025	23510
301.041	23520
301.02	23530
301.004	23540
301.054	23550
301.03	23560
300.995	23570
300.999	23580
301.05	23590
300.996	23600
301.034	23610
301.015	23620
301.006	23630
301.02	23640
301.021	23650
301.03	23660
301.052	23670
301.006	23680
300.993	23690
301.02	23700
301.038	23710
301.039	23720
301.017	23730
301.022	23740
301.0	23750
301.01	23760
301.014	23770
301.018	23780
301.008	23790
301.012	23800
301.02	23810
300.994	23820
301.016	23830
301.041	23840
301.034	23850
301.015	23860
301.055	23870
301.054	23880
301.105	23890
301.148	23900
301.138	23910
301.148	23920
301.122	23930
301.104	23940
301.07	23950
301.042	23960
301.012	23970
300.998	23980
301.024	23990
301.004	24000
300.845	24010
300.774	24020
301.234	24030
301.872	24040
301.766	24050
301.057	24060
300.71	24070
300.844	24080
300.998	24090
301.033	24100
301.04	24110
301.074	24120
301.106	24130
301.103	24140
301.166	24150
301.185	24160
301.204	24170
301.196	24180
301.21	24190
301.178	24200
301.105	24210
301.074	24220
301.062	24230
301.06	24240
301.008	24250
301.02	24260
301.044	24270
300.99	24280
301.044	24290
300.966	24300
300.983	24310
301.023	24320
301.023	24330
301.01	24340
301.008	24350
301.021	24360
301.005	24370
301.023	24380
301.02	24390
301.004	24400
300.992	24410
301.001	24420
301.011	24430
301.0	24440
301.005	24450
301.006	24460
301.048	24470
300.983	24480
300.977	24490
301.016	24500
301.007	24510
301.025	24520
301.005	24530
300.987	24540
301.006	24550
301.019	24560
300.995	24570
301.006	24580
300.992	24590
300.978	24600
301.012	24610
300.976	24620
301.021	24630
300.987	24640
301.016	24650
300.98	24660
300.998	24670
301.012	24680
300.993	24690
300.998	24700
301.019	24710
301.014	24720
301.029	24730
301.021	24740
301.053	24750
301.079	24760
301.102	24770
301.125	24780
301.152	24790
301.151	24800
301.125	24810
301.099	24820
301.083	24830
301.037	24840
301.046	24850
301.008	24860
301.007	24870
300.997	24880
300.938	24890
300.734	24900
301.09	24910
301.739	24920
301.913	24930
301.189	24940
300.7	24950
300.749	24960
300.96	24970
301.026	24980
301.029	24990
301.018	25000
301.068	25010
301.126	25020
301.145	25030
301.147	25040
301.194	25050
301.207	25060
301.179	25070
301.16	25080
301.106	25090
301.092	25100
301.065	25110
301.036	25120
301.012	25130
301.041	25140
301.016	25150
301.019	25160
300.996	25170
301.022	25180
300.94	25190
301.008	25200
300.998	25210
301.0	25220
301.006	25230
300.983	25240
301.0	25250
301.007	25260
301.022	25270
300.959	25280
301.006	25290
301.003	25300
301.007	25310
301.03	25320
301.022	25330
300.981	25340
300.99	25350
301.001	25360
301.022	25370
301.012	25380
301.012	25390
301.015	25400
301.019	25410
300.986	25420
300.991	25430
300.969	25440
300.958	25450
301.024	25460
301.001	25470
300.992	25480
300.986	25490
300.974	25500
301.005	25510
301.0	25520
300.989	25530
300.989	25540
301.007	25550
300.964	25560
300.979	25570
301.031	25580
301.007	25590
301.001	25600
300.992	25610
301.006	25620
301.038	25630
301.027	25640
301.112	25650
301.085	25660
301.115	25670
301.154	25680
301.136	25690
301.053	25700
301.048	25710
301.046	25720
300.987	25730
301.002	25740
300.99	25750
300.958	25760
300.973	25770
300.748	25780
300.958	25790
301.592	25800
301.925	25810
301.365	25820
300.747	25830
300.731	25840
300.88	25850
300.991	25860
301.028	25870
301.045	25880
301.057	25890
301.064	25900
301.114	25910
301.16	25920
301.184	25930
301.216	25940
301.166	25950
301.178	25960
301.12	25970
301.11	25980
301.061	25990
301.035	26000
301.033	26010
301.023	26020
300.974	26030
300.984	26040
300.989	26050
300.985	26060
300.991	26070
300.974	26080
300.972	26090
301.0	26100
300.987	26110
300.969	26120
300.982	26130
301.007	26140
300.992	26150
300.996	26160
300.985	26170
300.977	26180
300.974	26190
300.99	26200
300.996	26210
300.989	26220
300.999	26230
300.987	26240
300.976	26250
300.993	26260
300.99	26270
300.994	26280
301.0	26290
300.994	26300
300.984	26310
300.972	26320
300.982	26330
300.965	26340
300.991	26350
300.983	26360
300.992	26370
300.967	26380
300.985	26390
300.992	26400
300.97	26410
300.962	26420
300.966	26430
300.977	26440
301.02	26450
301.022	26460
301.005	26470
300.99	26480
300.994	26490
301.019	26500
301.001	26510
301.016	26520
301.076	26530
301.115	26540
301.122	26550
301.11	26560
301.135	26570
301.066	26580
301.037	26590
301.002	26600
300.985	26610
301.019	26620
300.981	26630
300.962	26640
300.943	26650
300.808	26660
300.879	26670
301.412	26680
301.93	26690
301.522	26700
300.839	26710
300.653	26720
300.872	26730
300.947	26740
300.992	26750
301.012	26760
301.061	26770
301.065	26780
301.103	26790
301.129	26800
301.165	26810
301.166	26820
301.167	26830
301.155	26840
301.122	26850
301.124	26860
301.03	26870
301.043	26880
300.993	26890
300.985	26900
300.987	26910
301.007	26920
300.995	26930
300.975	26940
301.004	26950
301.0	26960
300.971	26970
300.982	26980
300.995	26990
300.994	27000
300.979	27010
301.009	27020
301.02	27030
300.953	27040
300.965	27050
300.975	27060
300.965	27070
301.004	27080
300.966	27090
300.945	27100
300.967	27110
300.99	27120
300.988	27130
300.989	27140
300.963	27150
300.952	27160
300.965	27170
301.005	27180
300.972	27190
301.0	27200
300.978	27210
301.0	27220
301.01	27230
300.993	27240
300.986	27250
300.986	27260
300.976	27270
301.011	27280
300.95	27290
301.006	27300
300.969	27310
301.031	27320
300.998	27330
300.977	27340
301.002	27350
300.997	27360
300.963	27370
300.989	27380
301.008	27390
301.032	27400
301.054	27410
301.084	27420
301.108	27430
301.098	27440
301.142	27450
301.095	27460
301.053	27470
301.015	27480
300.995	27490
300.993	27500
300.982	27510
300.97	27520
301.0	27530
300.82	27540
300.768	27550
301.245	27560
301.862	27570
301.683	27580
300.975	27590
300.66	27600
300.808	27610
300.977	27620
301.0	27630
301.002	27640
301.014	27650
301.074	27660
301.113	27670
301.13	27680
301.173	27690
301.18	27700
301.175	27710
301.165	27720
301.117	27730
301.076	27740
301.063	27750
301.032	27760
301.009	27770
301.023	27780
301.008	27790
301.0	27800
300.99	27810
300.954	27820
300.981	27830
300.916	27840
300.97	27850
300.97	27860
300.991	27870
301.008	27880
300.978	27890
300.994	27900
301.009	27910
300.98	27920
300.955	27930
300.947	27940
300.976	27950
300.963	27960
300.995	27970
300.985	27980
300.981	27990
300.962	28000
300.99	28010
300.983	28020
300.994	28030
300.984	28040
301.004	28050
300.981	28060
300.994	28070
300.998	28080
300.987	28090
300.974	28100
300.986	28110
300.964	28120
300.982	28130
301.008	28140
300.979	28150
301.008	28160
300.977	28170
300.978	28180
300.965	28190
300.982	28200
300.983	28210
300.996	28220
301.002	28230
301.003	28240
300.98	28250
300.982	28260
300.999	28270
301.013	28280
301.031	28290
301.058	28300
301.085	28310
301.124	28320
301.117	28330
301.153	28340
301.069	28350
301.029	28360
301.013	28370
300.994	28380
301.009	28390
300.967	28400
300.962	28410
300.889	28420
300.747	28430
301.095	28440
301.775	28450
301.837	28460
301.167	28470
300.682	28480
300.768	28490
300.945	28500
301.018	28510
301.024	28520
301.056	28530
301.051	28540
301.064	28550
301.112	28560
301.156	28570
301.184	28580
301.174	28590
301.195	28600
301.147	28610
301.109	28620
301.106	28630
301.07	28640
301.003	28650
301.033	28660
301.0	28670
300.972	28680
300.987	28690
300.968	28700
300.981	28710
300.979	28720
300.968	28730
301.015	28740
301.003	28750
300.993	28760
300.983	28770
300.947	28780
300.996	28790
300.996	28800
300.976	28810
300.994	28820
300.965	28830
300.956	28840
300.972	28850
300.986	28860
300.982	28870
301.014	28880
300.976	28890
300.971	28900
300.96	28910
301.003	28920
300.959	28930
300.987	28940
301.004	28950
300.967	28960
300.982	28970
301.001	28980
300.978	28990
300.993	29000
300.988	29010
300.978	29020
300.98	29030
300.974	29040
300.983	29050
300.978	29060
300.964	29070
300.976	29080
300.978	29090
301.002	29100
301.004	29110
300.992	29120
301.001	29130
300.99	29140
301.018	29150
300.999	29160
301.063	29170
301.064	29180
301.074	29190
301.141	29200
301.141	29210
301.133	29220
301.091	29230
301.079	29240
300.998	29250
301.015	29260
301.013	29270
301.018	29280
300.983	29290
300.92	29300
300.755	29310
300.976	29320
301.608	29330
301.988	29340
301.324	29350
300.746	29360
300.707	29370
300.898	29380
300.995	29390
301.031	29400
301.068	29410
301.044	29420
301.115	29430
301.121	29440
301.169	29450
301.183	29460
301.184	29470
301.193	29480
301.168	29490
301.114	29500
301.116	29510
301.054	29520
301.061	29530
301.034	29540
300.999	29550
300.99	29560
300.977	29570
300.991	29580
300.999	29590
300.975	29600
300.978	29610
300.983	29620
300.987	29630
301.011	29640
301.018	29650
300.984	29660
301.009	29670
301.015	29680
300.959	29690
300.995	29700
300.99	29710
300.987	29720
301.001	29730
300.987	29740
301.004	29750
300.989	29760
301.015	29770
300.994	29780
301.021	29790
301.002	29800
300.983	29810
300.991	29820
300.982	29830
300.994	29840
301.027	29850
300.991	29860
301.024	29870
301.019	29880
300.981	29890
301.009	29900
301.004	29910
300.989	29920
301.002	29930
301.004	29940
300.99	29950
300.996	29960
301.013	29970
300.991	29980
301.018	29990
300.961	30000
300.984	30010
301.029	30020
301.024	30030
301.016	30040
301.066	30050
301.084	30060
301.104	30070
301.164	30080
301.144	30090
301.105	30100
301.141	30110
301.078	30120
301.034	30130
301.055	30140
300.998	30150
300.982	30160
301.001	30170
300.979	30180
300.827	30190
300.899	30200
301.44	30210
301.93	30220
301.493	30230
300.852	30240
300.707	30250
300.893	30260
301.03	30270
301.044	30280
301.052	30290
301.05	30300
301.096	30310
301.147	30320
301.158	30330
301.196	30340
301.195	30350
301.22	30360
301.141	30370
301.16	30380
301.108	30390
301.081	30400
301.074	30410
301.022	30420
301.026	30430
301.02	30440
301.025	30450
300.998	30460
300.981	30470
300.997	30480
301.009	30490
300.998	30500
301.006	30510
300.988	30520
301.039	30530
301.011	30540
300.995	30550
301.02	30560
301.003	30570
300.991	30580
301.042	30590
301.02	30600
301.001	30610
301.028	30620
300.964	30630
301.051	30640
300.958	30650
301.028	30660
301.0	30670
301.006	30680
301.001	30690
301.008	30700
301.011	30710
301.002	30720
301.009	30730
301.026	30740
300.983	30750
301.005	30760
301.015	30770
301.021	30780
301.0	30790
301.024	30800
300.999	30810
301.014	30820
301.03	30830
301.03	30840
301.027	30850
300.976	30860
301.035	30870
300.999	30880
301.024	30890
301.017	30900
301.033	30910
301.048	30920
301.074	30930
301.1	30940
301.124	30950
301.157	30960
301.15	30970
301.138	30980
301.101	30990
301.098	31000
301.066	31010
301.075	31020
301.05	31030
301.009	31040
301.015	31050
301.014	31060
300.856	31070
300.809	31080
301.292	31090
301.946	31100
301.663	31110
300.961	31120
300.689	31130
300.844	31140
301.037	31150
301.044	31160
301.059	31170
301.1	31180
301.103	31190
301.149	31200
301.121	31210
301.188	31220
301.214	31230
301.224	31240
301.188	31250
301.18	31260
301.11	31270
301.131	31280
301.078	31290
301.046	31300
301.037	31310
301.008	31320
301.009	31330
301.0	31340
301.009	31350
301.045	31360
301.008	31370
301.029	31380
301.004	31390
301.042	31400
301.01	31410
301.012	31420
301.007	31430
300.987	31440
301.015	31450
301.02	31460
301.013	31470
301.031	31480
301.007	31490
301.047	31500
301.031	31510
301.009	31520
301.011	31530
300.989	31540
301.009	31550
301.011	31560
301.016	31570
300.994	31580
301.024	31590
301.025	31600
301.014	31610
301.006	31620
301.031	31630
301.021	31640
301.005	31650
301.0	31660
301.025	31670
301.014	31680
300.995	31690
301.033	31700
301.012	31710
301.012	31720
301.006	31730
301.017	31740
301.057	31750
301.039	31760
301.032	31770
300.991	31780
301.002	31790
301.035	31800
301.04	31810
301.09	31820
301.106	31830
301.147	31840
301.175	31850
301.145	31860
301.149	31870
301.1	31880
301.078	31890
301.079	31900
301.044	31910
301.02	31920
301.023	31930
300.99	31940
300.944	31950
300.773	31960
301.178	31970
301.83	31980
301.857	31990
301.13	32000
300.709	32010
300.797	32020
300.986	32030
301.025	32040
301.073	32050
301.069	32060
301.103	32070
301.138	32080
301.152	32090
301.182	32100
301.182	32110
301.19	32120
301.215	32130
301.2	32140
301.137	32150
301.103	32160
301.073	32170
301.069	32180
301.013	32190
301.027	32200
301.009	32210
301.002	32220
301.014	32230
300.989	32240
301.007	32250
301.024	32260
301.009	32270
301.019	32280
301.035	32290
301.014	32300
301.033	32310
301.051	32320
300.998	32330
301.029	32340
301.023	32350
301.033	32360
301.037	32370
301.024	32380
301.024	32390
301.004	32400
301.032	32410
301.025	32420
301.004	32430
300.98	32440
301.0	32450
300.989	32460
301.017	32470
301.007	32480
300.987	32490
301.033	32500
301.013	32510
301.017	32520
301.021	32530
301.034	32540
301.003	32550
300.989	32560
301.018	32570
301.015	32580
301.036	32590
301.015	32600
301.015	32610
300.972	32620
301.006	32630
301.016	32640
301.039	32650
301.042	32660
301.051	32670
301.015	32680
301.075	32690
301.087	32700
301.081	32710
301.145	32720
301.172	32730
301.165	32740
301.154	32750
301.113	32760
301.094	32770
301.065	32780
301.042	32790
301.06	32800
301.023	32810
301.033	32820
300.938	32830
300.796	32840
301.035	32850
301.692	32860
301.941	32870
301.298	32880
300.758	32890
300.759	32900
300.948	32910
301.077	32920
301.045	32930
301.048	32940
301.073	32950
301.125	32960
301.186	32970
301.227	32980
301.204	32990
301.173	33000
301.223	33010
301.192	33020
301.168	33030
301.114	33040
301.091	33050
301.087	33060
301.094	33070
301.073	33080
301.028	33090
300.994	33100
301.046	33110
301.025	33120
301.022	33130
301.051	33140
301.038	33150
301.01	33160
300.997	33170
301.02	33180
301.001	33190
301.0	33200
301.004	33210
301.017	33220
300.983	33230
301.034	33240
300.993	33250
301.024	33260
301.014	33270
301.031	33280
301.006	33290
301.009	33300
301.014	33310
301.035	33320
301.019	33330
301.05	33340
301.018	33350
301.009	33360
301.004	33370
301.027	33380
301.013	33390
301.001	33400
301.006	33410
301.015	33420
301.005	33430
301.013	33440
300.991	33450
301.005	33460
301.016	33470
301.028	33480
301.053	33490
301.02	33500
301.021	33510
301.017	33520
301.046	33530
301.036	33540
301.011	33550
301.039	33560
301.051	33570
301.067	33580
301.097	33590
301.137	33600
301.144	33610
301.162	33620
301.157	33630
301.15	33640
301.088	33650
301.075	33660
300.999	33670
301.035	33680
301.032	33690
301.008	33700
300.987	33710
300.804	33720
300.938	33730
301.498	33740
301.979	33750
301.461	33760
300.823	33770
300.727	33780
300.91	33790
301.005	33800
301.04	33810
301.019	33820
301.093	33830
301.095	33840
301.14	33850
301.193	33860
301.17	33870
301.224	33880
301.247	33890
301.188	33900
301.178	33910
301.093	33920
301.093	33930
301.073	33940
301.053	33950
301.023	33960
301.008	33970
301.01	33980
301.055	33990
301.019	34000
301.014	34010
300.996	34020
301.026	34030
301.019	34040
301.001	34050
301.006	34060
301.015	34070
301.038	34080
300.992	34090
300.976	34100
301.009	34110
301.041	34120
300.998	34130
301.002	34140
301.036	34150
301.0	34160
301.018	34170
301.028	34180
301.015	34190
301.009	34200
300.988	34210
301.017	34220
301.011	34230
301.018	34240
301.016	34250
301.019	34260
300.98	34270
301.031	34280
301.012	34290
301.023	34300
301.01	34310
300.971	34320
301.021	34330
301.018	34340
300.965	34350
301.001	34360
300.994	34370
301.023	34380
301.008	34390
301.027	34400
300.996	34410
301.011	34420
300.998	34430
300.999	34440
301.05	34450
301.051	34460
301.07	34470
301.109	34480
301.133	34490
301.154	34500
301.117	34510
301.102	34520
301.04	34530
301.047	34540
301.024	34550
301.012	34560
301.032	34570
301.024	34580
300.973	34590
300.822	34600
300.813	34610
301.325	34620
301.935	34630
301.612	34640
300.918	34650
300.674	34660
300.868	34670
300.967	34680
301.06	34690
301.045	34700
301.041	34710
301.099	34720
301.09	34730
301.128	34740
301.197	34750
301.2	34760
301.166	34770
301.159	34780
301.192	34790
301.142	34800
301.092	34810
301.071	34820
301.008	34830
301.038	34840
301.031	34850
300.994	34860
300.996	34870
300.994	34880
301.032	34890
301.041	34900
300.984	34910
301.008	34920
301.019	34930
300.977	34940
300.97	34950
301.01	34960
300.994	34970
300.998	34980
301.02	34990
301.017	35000
301.007	35010
300.968	35020
301.013	35030
300.991	35040
300.987	35050
301.005	35060
300.966	35070
300.966	35080
300.993	35090
301.017	35100
301.024	35110
300.979	35120
301.026	35130
301.015	35140
301.023	35150
300.994	35160
300.995	35170
300.988	35180
301.027	35190
301.008	35200
300.984	35210
300.994	35220
300.96	35230
300.989	35240
300.979	35250
300.998	35260
301.008	35270
300.984	35280
301.043	35290
301.021	35300
301.01	35310
301.006	35320
301.013	35330
301.002	35340
301.047	35350
301.088	35360
301.133	35370
301.183	35380
301.135	35390
301.103	35400
301.092	35410
301.024	35420
301.015	35430
300.967	35440
301.006	35450
301.006	35460
300.979	35470
300.885	35480
300.785	35490
301.161	35500
301.835	35510
301.786	35520
301.065	35530
300.655	35540
300.788	35550
300.974	35560
301.017	35570
301.01	35580
301.04	35590
301.071	35600
301.086	35610
301.088	35620
301.176	35630
301.191	35640
301.191	35650
301.177	35660
301.153	35670
301.122	35680
301.092	35690
301.049	35700
301.038	35710
300.997	35720
301.01	35730
300.98	35740
301.01	35750
300.993	35760
301.008	35770
300.975	35780
300.991	35790
301.003	35800
300.987	35810
300.982	35820
300.998	35830
300.991	35840
300.998	35850
301.01	35860
300.994	35870
300.993	35880
300.992	35890
300.984	35900
300.971	35910
300.976	35920
301.009	35930
300.987	35940
300.994	35950
301.003	35960
300.995	35970
300.985	35980
300.965	35990
300.984	36000
300.976	36010
301.027	36020
300.977	36030
301.0	36040
301.0	36050
301.003	36060
300.971	36070
301.011	36080
300.986	36090
300.986	36100
300.987	36110
301.037	36120
300.958	36130
300.977	36140
300.989	36150
300.999	36160
300.975	36170
300.992	36180
300.986	36190
301.007	36200
300.991	36210
301.009	36220
301.039	36230
301.061	36240
301.103	36250
301.136	36260
301.127	36270
301.084	36280
301.081	36290
301.047	36300
301.014	36310
300.979	36320
300.998	36330
300.988	36340
300.942	36350
300.906	36360
300.755	36370
301.039	36380
301.704	36390
301.891	36400
301.193	36410
300.663	36420
300.726	36430
300.909	36440
301.016	36450
301.006	36460
301.051	36470
301.035	36480
301.064	36490
301.123	36500
301.155	36510
301.177	36520
301.156	36530
301.165	36540
301.149	36550
301.112	36560
301.053	36570
301.058	36580
300.988	36590
300.967	36600
300.98	36610
301.004	36620
300.979	36630
300.986	36640
300.985	36650
300.99	36660
300.96	36670
300.987	36680
301.01	36690
300.981	36700
300.972	36710
300.993	36720
300.975	36730
301.001	36740
300.985	36750
300.988	36760
300.976	36770
300.966	36780
300.988	36790
300.965	36800
300.979	36810
300.966	36820
300.982	36830
301.003	36840
300.977	36850
300.969	36860
300.941	36870
300.979	36880
300.973	36890
300.984	36900
300.984	36910
300.994	36920
300.989	36930
300.986	36940
300.959	36950
300.983	36960
300.993	36970
301.002	36980
300.961	36990
300.997	37000
300.94	37010
300.99	37020
300.977	37030
300.977	37040
300.997	37050
300.977	37060
300.98	37070
300.978	37080
300.997	37090
301.007	37100
301.022	37110
301.061	37120
301.108	37130
301.143	37140
301.137	37150
301.1	37160
301.088	37170
301.031	37180
301.004	37190
301.024	37200
300.967	37210
300.96	37220
300.961	37230
300.933	37240
300.743	37250
300.921	37260
301.487	37270
301.989	37280
301.396	37290
300.743	37300
300.668	37310
300.9	37320
300.978	37330
301.002	37340
301.036	37350
301.03	37360
301.074	37370
301.119	37380
301.115	37390
301.166	37400
301.182	37410
301.179	37420
301.117	37430
301.138	37440
301.093	37450
301.031	37460
301.021	37470
301.014	37480
301.019	37490
300.999	37500
300.983	37510
300.992	37520
301.003	37530
300.982	37540
300.994	37550
300.969	37560
300.942	37570
300.96	37580
300.988	37590
300.982	37600
300.999	37610
300.99	37620
301.003	37630
300.985	37640
300.986	37650
301.012	37660
300.984	37670
300.955	37680
300.983	37690
300.966	37700
300.974	37710
300.982	37720
300.996	37730
300.953	37740
300.952	37750
301.01	37760
301.006	37770
301.0	37780
300.992	37790
301.002	37800
301.016	37810
300.977	37820
300.986	37830
300.972	37840
300.993	37850
300.991	37860
300.968	37870
300.973	37880
300.959	37890
300.99	37900
300.983	37910
300.969	37920
300.973	37930
300.984	37940
300.974	37950
300.979	37960
300.983	37970
300.981	37980
301.054	37990
301.071	38000
301.101	38010
301.113	38020
301.106	38030
301.1	38040
301.082	38050
301.04	38060
301.051	38070
301.033	38080
300.99	38090
300.956	38100
300.972	38110
300.953	38120
300.806	38130
300.819	38140
301.377	38150
301.958	38160
301.556	38170
300.876	38180
300.671	38190
300.846	38200
300.993	38210
300.996	38220
301.043	38230
301.068	38240
301.064	38250
301.114	38260
301.126	38270
301.173	38280
301.164	38290
301.163	38300
301.162	38310
301.12	38320
301.114	38330
301.071	38340
301.028	38350
301.002	38360
301.02	38370
300.982	38380
301.005	38390
300.987	38400
300.994	38410
301.013	38420
301.014	38430
300.998	38440
300.996	38450
300.988	38460
300.991	38470
300.964	38480
300.995	38490
300.997	38500
300.979	38510
300.955	38520
300.991	38530
300.987	38540
301.001	38550
300.971	38560
300.981	38570
300.979	38580
300.991	38590
301.013	38600
300.987	38610
300.996	38620
300.968	38630
300.983	38640
300.994	38650
300.999	38660
300.986	38670
301.007	38680
300.967	38690
300.955	38700
300.981	38710
300.966	38720
300.967	38730
300.988	38740
300.969	38750
301.025	38760
300.984	38770
300.972	38780
301.026	38790
300.991	38800
300.975	38810
300.957	38820
300.984	38830
300.972	38840
301.016	38850
301.01	38860
301.014	38870
301.021	38880
301.06	38890
301.108	38900
301.123	38910
301.135	38920
301.091	38930
301.063	38940
301.015	38950
301.021	38960
300.995	38970
301.005	38980
300.982	38990
300.95	39000
300.851	39010
300.795	39020
301.194	39030
301.87	39040
301.727	39050
301.022	39060
300.67	39070
300.815	39080
300.984	39090
301.021	39100
301.026	39110
301.038	39120
301.083	39130
301.106	39140
301.108	39150
301.197	39160
301.162	39170
301.196	39180
301.141	39190
301.144	39200
301.108	39210
301.07	39220
301.028	39230
301.044	39240
300.996	39250
301.004	39260
300.979	39270
300.972	39280
300.99	39290
301.005	39300
300.966	39310
300.984	39320
300.978	39330
301.016	39340
300.984	39350
301.032	39360
300.997	39370
301.013	39380
301.03	39390
300.983	39400
300.971	39410
301.012	39420
301.002	39430
300.985	39440
301.003	39450
301.005	39460
300.994	39470
300.996	39480
300.984	39490
300.99	39500
300.993	39510
300.972	39520
300.978	39530
300.983	39540
301.028	39550
300.995	39560
300.985	39570
300.995	39580
301.002	39590
301.02	39600
300.963	39610
300.986	39620
300.987	39630
301.014	39640
300.988	39650
301.028	39660
300.974	39670
300.99	39680
300.968	39690
300.994	39700
301.009	39710
300.985	39720
300.993	39730
301.058	39740
301.029	39750
301.091	39760
301.115	39770
301.127	39780
301.125	39790
301.153	39800
301.136	39810
301.085	39820
301.032	39830
301.018	39840
301.013	39850
301.018	39860
301.017	39870
301.01	39880
300.902	39890
300.755	39900
301.067	39910
301.752	39920
301.87	39930
301.194	39940
300.698	39950
300.77	39960
300.977	39970
301.016	39980
301.018	39990
301.046	40000
301.098	40010
301.101	40020
301.105	40030
301.178	40040
301.19	40050
301.2	40060
301.19	40070
301.163	40080
301.142	40090
301.095	40100
301.077	40110
301.049	40120
301.009	40130
301.027	40140
300.991	40150
300.998	40160
301.001	40170
300.992	40180
300.996	40190
301.001	40200
300.988	40210
301.004	40220
301.017	40230
300.986	40240
300.997	40250
301.011	40260
301.002	40270
300.965	40280
301.022	40290
301.014	40300
301.007	40310
300.982	40320
301.008	40330
300.997	40340
300.973	40350
300.976	40360
300.991	40370
301.0	40380
301.025	40390
300.99	40400
300.982	40410
300.991	40420
301.031	40430
301.028	40440
301.001	40450
301.0	40460
300.993	40470
301.012	40480
301.009	40490
301.017	40500
301.006	40510
301.001	40520
301.02	40530
301.002	40540
301.002	40550
300.997	40560
301.023	40570
301.021	40580
301.0	40590
300.997	40600
301.002	40610
301.028	40620
301.043	40630
301.071	40640
301.097	40650
301.148	40660
301.138	40670
301.177	40680
301.146	40690
301.113	40700
301.08	40710
301.051	40720
301.023	40730
300.997	40740
301.014	40750
301.002	40760
300.965	40770
300.757	40780
300.94	40790
301.62	40800
301.987	40810
301.384	40820
300.739	40830
300.713	40840
300.93	40850
301.026	40860
301.045	40870
301.082	40880
301.034	40890
301.088	40900
301.156	40910
301.144	40920
301.209	40930
301.188	40940
301.209	40950
301.214	40960
301.158	40970
301.125	40980
301.092	40990
301.078	41000
301.06	41010
301.036	41020
301.035	41030
301.019	41040
300.99	41050
301.036	41060
301.024	41070
300.997	41080
300.999	41090
300.996	41100
301.012	41110
301.04	41120
301.037	41130
301.007	41140
301.019	41150
301.007	41160
300.99	41170
301.008	41180
301.012	41190
301.032	41200
301.003	41210
301.007	41220
301.002	41230
301.022	41240
300.997	41250
301.032	41260
301.001	41270
301.018	41280
300.993	41290
301.006	41300
301.023	41310
301.032	41320
301.032	41330
300.987	41340
301.01	41350
301.022	41360
300.994	41370
300.991	41380
301.037	41390
301.016	41400
301.018	41410
301.023	41420
300.995	41430
301.05	41440
301.011	41450
301.016	41460
301.006	41470
301.014	41480
301.023	41490
301.007	41500
301.001	41510
301.054	41520
301.115	41530
301.135	41540
301.153	41550
301.146	41560
301.153	41570
301.109	41580
301.08	41590
301.079	41600
301.014	41610
301.018	41620
300.999	41630
301.012	41640
300.983	41650
300.787	41660
300.888	41670
301.427	41680
302.026	41690
301.585	41700
300.869	41710
300.688	41720
300.872	41730
301.02	41740
301.039	41750
301.031	41760
301.091	41770
301.1	41780
301.143	41790
301.177	41800
301.218	41810
301.195	41820
301.223	41830
301.186	41840
301.168	41850
301.122	41860
301.116	41870
301.063	41880
301.056	41890
301.06	41900
301.044	41910
301.003	41920
301.007	41930
301.013	41940
301.009	41950
301.021	41960
301.029	41970
301.012	41980
300.986	41990
301.036	42000
301.007	42010
301.045	42020
301.01	42030
301.013	42040
300.999	42050
301.023	42060
301.035	42070
301.016	42080
301.041	42090
301.02	42100
301.0	42110
301.026	42120
301.035	42130
301.021	42140
301.011	42150
301.033	42160
301.024	42170
301.056	42180
301.006	42190
301.002	42200
301.028	42210
301.028	42220
301.013	42230
301.03	42240
301.043	42250
301.018	42260
301.02	42270
301.025	42280
301.013	42290
301.01	42300
301.026	42310
301.01	42320
301.002	42330
301.014	42340
301.022	42350
301.012	42360
301.015	42370
301.038	42380
301.021	42390
301.066	42400
301.09	42410
301.138	42420
301.16	42430
301.188	42440
301.165	42450
301.141	42460
301.119	42470
301.074	42480
301.049	42490
301.03	42500
301.005	42510
301.015	42520
301.032	42530
300.846	42540
300.835	42550
301.297	42560
301.897	42570
301.744	42580
300.978	42590
300.693	42600
300.835	42610
300.975	42620
301.028	42630
301.095	42640
301.063	42650
301.097	42660
301.169	42670
301.166	42680
301.176	42690
301.196	42700
301.214	42710
301.2	42720
301.159	42730
301.11	42740
301.108	42750
301.08	42760
301.053	42770
301.045	42780
301.02	42790
301.023	42800
301.014	42810
301.035	42820
301.031	42830
301.027	42840
301.05	42850
301.022	42860
301.042	42870
301.026	42880
301.023	42890
301.018	42900
301.021	42910
301.005	42920
301.041	42930
301.041	42940
301.007	42950
301.025	42960
301.047	42970
301.025	42980
301.024	42990
301.05	43000
301.003	43010
301.008	43020
301.009	43030
301.0	43040
301.026	43050
301.016	43060
300.984	43070
301.011	43080
301.012	43090
301.028	43100
301.019	43110
301.012	43120
301.02	43130
300.998	43140
301.016	43150
301.011	43160
301.047	43170
301.015	43180
301.006	43190
301.025	43200
301.032	43210
301.022	43220
301.018	43230
301.035	43240
301.008	43250
301.017	43260
301.053	43270
301.057	43280
301.07	43290
301.111	43300
301.131	43310
301.17	43320
301.18	43330
301.131	43340
301.099	43350
301.053	43360
301.045	43370
301.019	43380
301.02	43390
301.015	43400
301.016	43410
300.915	43420
300.766	43430
301.133	43440
301.785	43450
301.864	43460
301.168	43470
300.734	43480
300.799	43490
300.996	43500
301.007	43510
301.03	43520
301.051	43530
301.061	43540
301.16	43550
301.168	43560
301.193	43570
301.186	43580
301.222	43590
301.199	43600
301.169	43610
301.165	43620
301.124	43630
301.094	43640
301.052	43650
301.023	43660
300.996	43670
300.972	43680
300.989	43690
301.048	43700
300.994	43710
301.003	43720
301.012	43730
301.034	43740
301.019	43750
301.03	43760
301.019	43770
300.999	43780
301.009	43790
300.989	43800
301.024	43810
301.022	43820
301.033	43830
301.03	43840
301.0	43850
301.017	43860
301.022	43870
301.024	43880
301.024	43890
301.02	43900
301.012	43910
300.994	43920
301.043	43930
301.015	43940
301.028	43950
301.024	43960
301.019	43970
301.018	43980
300.986	43990
301.021	44000
300.998	44010
301.014	44020
301.039	44030
301.033	44040
301.021	44050
300.958	44060
300.992	44070
301.024	44080
301.003	44090
301.026	44100
300.982	44110
301.01	44120
300.998	44130
300.997	44140
301.036	44150
301.041	44160
301.078	44170
301.103	44180
301.132	44190
301.166	44200
301.127	44210
301.142	44220
301.117	44230
301.051	44240
301.051	44250
301.007	44260
300.991	44270
301.02	44280
300.988	44290
300.941	44300
300.802	44310
300.986	44320
301.628	44330
301.95	44340
301.314	44350
300.762	44360
300.719	44370
300.943	44380
301.031	44390
301.035	44400
301.055	44410
301.034	44420
301.089	44430
301.133	44440
301.182	44450
301.205	44460
301.188	44470
301.163	44480
301.186	44490
301.159	44500
301.112	44510
301.081	44520
301.032	44530
301.012	44540
301.016	44550
301.007	44560
300.994	44570
301.019	44580
300.976	44590
300.984	44600
301.007	44610
301.02	44620
300.991	44630
301.036	44640
300.984	44650
301.017	44660
301.009	44670
301.008	44680
301.013	44690
300.998	44700
301.011	44710
300.99	44720
301.001	44730
300.978	44740
301.021	44750
301.006	44760
300.996	44770
301.018	44780
301.008	44790
300.976	44800
301.007	44810
300.999	44820
301.027	44830
300.998	44840
301.008	44850
300.994	44860
300.988	44870
300.987	44880
300.985	44890
300.985	44900
300.987	44910
301.007	44920
300.978	44930
301.001	44940
301.009	44950
300.998	44960
301.011	44970
300.997	44980
300.99	44990
300.986	45000
300.992	45010
301.012	45020
301.046	45030
301.034	45040
301.041	45050
301.086	45060
301.089	45070
301.171	45080
301.149	45090
301.109	45100
301.107	45110
301.064	45120
301.005	45130
301.04	45140
301.017	45150
301.007	45160
301.003	45170
300.996	45180
300.817	45190
300.889	45200
301.445	45210
301.98	45220
301.533	45230
300.835	45240
300.651	45250
300.873	45260
301.002	45270
301.036	45280
301.05	45290
301.076	45300
301.101	45310
301.137	45320
301.18	45330
301.194	45340
301.195	45350
301.187	45360
301.16	45370
301.147	45380
301.115	45390
301.08	45400
301.032	45410
301.025	45420
301.018	45430
301.009	45440
301.006	45450
301.015	45460
300.981	45470
300.99	45480
301.009	45490
300.996	45500
301.009	45510
300.981	45520
300.99	45530
301.015	45540
300.998	45550
301.021	45560
300.998	45570
300.991	45580
301.01	45590
300.997	45600
301.008	45610
300.996	45620
300.981	45630
300.994	45640
300.996	45650
300.994	45660
301.0	45670
301.006	45680
300.981	45690
300.964	45700
300.984	45710
300.966	45720
301.0	45730
300.989	45740
300.964	45750
300.983	45760
300.99	45770
300.972	45780
300.973	45790
301.006	45800
300.993	45810
300.98	45820
301.005	45830
300.989	45840
300.995	45850
301.005	45860
300.973	45870
300.98	45880
300.985	45890
300.986	45900
301.017	45910
301.002	45920
301.036	45930
301.074	45940
301.078	45950
301.141	45960
301.133	45970
301.126	45980
301.082	45990
301.056	46000
301.026	46010
301.018	46020
300.993	46030
301.022	46040
300.966	46050
300.96	46060
300.833	46070
300.793	46080
301.276	46090
301.895	46100
301.645	46110
300.935	46120
300.645	46130
300.841	46140
300.97	46150
301.004	46160
300.989	46170
301.09	46180
301.063	46190
301.093	46200
301.165	46210
301.167	46220
301.171	46230
301.164	46240
301.146	46250
301.137	46260
301.124	46270
301.066	46280
301.056	46290
301.029	46300
301.002	46310
301.007	46320
300.983	46330
300.963	46340
300.996	46350
300.967	46360
301.0	46370
300.976	46380
301.007	46390
300.974	46400
300.979	46410
300.974	46420
300.996	46430
300.985	46440
301.007	46450
300.966	46460
300.957	46470
301.018	46480
301.019	46490
300.98	46500
301.006	46510
300.982	46520
300.997	46530
300.969	46540
300.989	46550
300.972	46560
300.97	46570
300.983	46580
300.993	46590
300.973	46600
301.016	46610
300.968	46620
301.003	46630
300.992	46640
300.97	46650
301.007	46660
301.0	46670
300.992	46680
301.006	46690
300.964	46700
301.007	46710
300.97	46720
300.976	46730
300.987	46740
301.009	46750
300.975	46760
300.963	46770
300.961	46780
300.99	46790
300.99	46800
301.009	46810
301.05	46820
301.081	46830
301.076	46840
301.156	46850
301.144	46860
301.09	46870
301.052	46880
301.057	46890
301.019	46900
301.012	46910
300.973	46920
300.976	46930
300.981	46940
300.873	46950
300.754	46960
301.12	46970
301.768	46980
301.765	46990
301.071	47000
300.672	47010
300.769	47020
300.95	47030
300.956	47040
301.02	47050
301.019	47060
301.065	47070
301.097	47080
301.118	47090
301.17	47100
301.175	47110
301.149	47120
301.176	47130
301.121	47140
301.098	47150
301.059	47160
301.063	47170
301.034	47180
300.994	47190
301.004	47200
300.961	47210
300.97	47220
300.978	47230
300.97	47240
300.969	47250
300.997	47260
300.985	47270
300.971	47280
300.982	47290
300.951	47300
300.993	47310
300.955	47320
300.96	47330
300.962	47340
300.99	47350
300.968	47360
300.966	47370
300.994	47380
300.963	47390
301.006	47400
300.992	47410
300.992	47420
300.987	47430
300.97	47440
301.015	47450
301.003	47460
300.956	47470
300.988	47480
300.98	47490
300.961	47500
300.98	47510
300.99	47520
300.982	47530
300.955	47540
301.003	47550
301.019	47560
300.971	47570
300.969	47580
300.969	47590
300.965	47600
301.007	47610
300.988	47620
300.984	47630
300.995	47640
300.974	47650
300.973	47660
300.979	47670
301.003	47680
301.009	47690
301.039	47700
301.086	47710
301.116	47720
301.161	47730
301.1	47740
301.103	47750
301.06	47760
301.055	47770
301.04	47780
301.006	47790
300.986	47800
301.006	47810
300.968	47820
300.937	47830
300.768	47840
301.0	47850
301.613	47860
301.904	47870
301.227	47880
300.696	47890
300.731	47900
300.905	47910
300.977	47920
300.984	47930
301.027	47940
301.058	47950
301.114	47960
301.123	47970
301.122	47980
301.196	47990
301.185	48000
301.152	48010
301.14	48020
301.128	48030
301.098	48040
301.08	48050
301.009	48060
301.009	48070
300.982	48080
301.018	48090
300.975	48100
300.961	48110
300.984	48120
300.982	48130
301.004	48140
300.989	48150
300.969	48160
300.947	48170
300.965	48180
300.965	48190
300.961	48200
300.985	48210
300.972	48220
300.98	48230
300.952	48240
300.991	48250
300.962	48260
300.986	48270
300.966	48280
301.017	48290
300.986	48300
301.008	48310
301.026	48320
300.959	48330
300.991	48340
301.008	48350
300.961	48360
301.002	48370
301.014	48380
301.012	48390
300.968	48400
300.98	48410
300.974	48420
300.984	48430
300.983	48440
300.987	48450
301.0	48460
301.013	48470
301.005	48480
300.973	48490
300.984	48500
300.987	48510
300.994	48520
300.997	48530
300.973	48540
301.021	48550
300.988	48560
301.026	48570
301.085	48580
301.094	48590
301.092	48600
301.154	48610
301.148	48620
301.109	48630
301.075	48640
301.081	48650
301.036	48660
301.004	48670
301.0	48680
300.984	48690
301.015	48700
300.969	48710
300.75	48720
300.893	48730
301.517	48740
302.008	48750
301.449	48760
300.788	48770
300.633	48780
300.893	48790
300.992	48800
301.018	48810
301.065	48820
301.05	48830
301.074	48840
301.134	48850
301.155	48860
301.19	48870
301.197	48880
301.194	48890
301.17	48900
301.164	48910
301.108	48920
301.095	48930
301.036	48940
301.012	48950
301.006	48960
300.998	48970
300.981	48980
300.986	48990
300.986	49000
301.004	49010
300.99	49020
300.976	49030
301.023	49040
301.004	49050
301.002	49060
301.001	49070
300.971	49080
300.985	49090
301.007	49100
300.999	49110
300.974	49120
300.973	49130
300.991	49140
301.004	49150
300.969	49160
300.97	49170
301.0	49180
300.996	49190
300.978	49200
300.974	49210
300.965	49220
300.958	49230
300.995	49240
300.972	49250
300.978	49260
300.989	49270
300.992	49280
300.987	49290
301.003	49300
300.992	49310
301.012	49320
300.988	49330
300.969	49340
300.965	49350
301.024	49360
300.985	49370
301.018	49380
301.007	49390
300.994	49400
301.0	49410
300.989	49420
300.99	49430
301.002	49440
301.019	49450
301.053	49460
301.075	49470
301.134	49480
301.123	49490
301.143	49500
301.151	49510
301.12	49520
301.099	49530
301.028	49540
300.991	49550
300.993	49560
301.006	49570
300.973	49580
300.967	49590
300.829	49600
300.829	49610
301.328	49620
301.932	49630
301.635	49640
300.932	49650
300.638	49660
300.853	49670
301.009	49680
301.011	49690
301.035	49700
301.073	49710
301.083	49720
301.097	49730
301.127	49740
301.169	49750
301.223	49760
301.201	49770
301.16	49780
301.144	49790
301.101	49800
301.071	49810
301.072	49820
301.053	49830
301.002	49840
301.011	49850
301.016	49860
300.989	49870
301.011	49880
300.978	49890
301.003	49900
301.019	49910
300.995	49920
301.013	49930
301.031	49940
300.953	49950
300.992	49960
300.968	49970
300.998	49980
300.991	49990
301.008	50000
300.992	50010
300.997	50020
300.985	50030
300.977	50040
301.007	50050
300.989	50060
301.014	50070
300.973	50080
301.019	50090
301.025	50100
301.009	50110
301.026	50120
300.994	50130
301.004	50140
300.995	50150
301.01	50160
301.041	50170
301.023	50180
301.007	50190
301.004	50200
301.003	50210
301.005	50220
300.989	50230
300.984	50240
301.044	50250
300.998	50260
300.994	50270
301.019	50280
300.998	50290
301.029	50300
301.003	50310
301.005	50320
301.006	50330
301.039	50340
301.123	50350
301.092	50360
301.115	50370
301.141	50380
301.157	50390
301.145	50400
301.094	50410
301.083	50420
301.028	50430
300.992	50440
300.982	50450
300.994	50460
300.998	50470
300.878	50480
300.785	50490
301.214	50500
301.852	50510
301.784	50520
301.098	50530
300.647	50540
300.772	50550
300.957	50560
301.056	50570
301.024	50580
301.068	50590
301.045	50600
301.09	50610
301.148	50620
301.189	50630
301.192	50640
301.198	50650
301.218	50660
301.179	50670
301.175	50680
301.105	50690
301.077	50700
301.027	50710
301.064	50720
300.975	50730
301.015	50740
301.02	50750
301.017	50760
300.979	50770
301.02	50780
300.975	50790
301.006	50800
300.979	50810
301.01	50820
301.02	50830
301.03	50840
301.016	50850
301.01	50860
301.003	50870
301.037	50880
301.004	50890
300.998	50900
300.991	50910
300.997	50920
300.991	50930
301.024	50940
301.007	50950
300.999	50960
300.999	50970
301.03	50980
301.008	50990
301.02	51000
301.016	51010
301.013	51020
300.995	51030
301.049	51040
300.997	51050
300.992	51060
301.014	51070
300.998	51080
301.034	51090
300.961	51100
301.026	51110
301.0	51120
301.018	51130
301.002	51140
301.024	51150
301.039	51160
301.051	51170
301.036	51180
301.01	51190
301.019	51200
301.045	51210
301.026	51220
301.073	51230
301.1	51240
301.177	51250
301.134	51260
301.164	51270
301.126	51280
301.114	51290
301.061	51300
301.064	51310
301.019	51320
301.044	51330
301.024	51340
301.009	51350
300.915	51360
300.81	51370
301.06	51380
301.712	51390
301.936	51400
301.258	51410
300.727	51420
300.744	51430
300.969	51440
301.046	51450
301.071	51460
301.064	51470
301.122	51480
301.109	51490
301.14	51500
301.229	51510
301.203	51520
301.206	51530
301.191	51540
301.17	51550
301.137	51560
301.127	51570
301.076	51580
301.044	51590
301.052	51600
301.037	51610
301.014	51620
301.016	51630
301.025	51640
301.051	51650
301.003	51660
301.009	51670
301.024	51680
301.02	51690
301.001	51700
301.018	51710
300.994	51720
301.015	51730
301.04	51740
301.026	51750
301.022	51760
301.011	51770
300.989	51780
301.047	51790
301.019	51800
301.022	51810
301.002	51820
301.01	51830
301.041	51840
301.0	51850
301.044	51860
301.037	51870
301.019	51880
301.02	51890
300.994	51900
301.005	51910
301.016	51920
301.026	51930
300.991	51940
301.036	51950
301.02	51960
301.034	51970
301.009	51980
301.043	51990
301.011	52000
301.045	52010
300.985	52020
301.029	52030
301.025	52040
301.015	52050
301.016	52060
301.01	52070
301.025	52080
301.052	52090
301.046	52100
301.112	52110
301.116	52120
301.152	52130
301.143	52140
301.155	52150
301.154	52160
301.099	52170
301.074	52180
301.046	52190
301.054	52200
301.036	52210
301.052	52220
301.038	52230
300.984	52240
300.814	52250
300.945	52260
301.583	52270
302.027	52280
301.446	52290
300.817	52300
300.728	52310
300.928	52320
301.02	52330
301.05	52340
301.062	52350
301.103	52360
301.12	52370
301.162	52380
301.177	52390
301.216	52400
301.221	52410
301.207	52420
301.172	52430
301.168	52440
301.142	52450
301.098	52460
301.074	52470
301.044	52480
301.056	52490
301.038	52500
301.024	52510
301.02	52520
301.019	52530
301.023	52540
301.043	52550
300.995	52560
301.036	52570
301.03	52580
301.03	52590
301.021	52600
301.024	52610
301.006	52620
301.014	52630
301.034	52640
301.022	52650
301.009	52660
301.008	52670
300.983	52680
301.002	52690
301.013	52700
301.022	52710
300.999	52720
301.011	52730
301.034	52740
301.025	52750
301.013	52760
301.036	52770
301.026	52780
301.031	52790
301.038	52800
301.026	52810
301.026	52820
300.994	52830
300.983	52840
301.0	52850
301.01	52860
301.024	52870
301.007	52880
301.062	52890
301.031	52900
301.0	52910
301.011	52920
301.022	52930
301.03	52940
300.996	52950
301.042	52960
301.042	52970
301.048	52980
301.062	52990
301.094	53000
301.137	53010
301.152	53020
301.136	53030
301.179	53040
301.148	53050
301.104	53060
301.061	53070
301.039	53080
301.062	53090
301.05	53100
301.019	53110
301.0	53120
300.826	53130
300.859	53140
301.419	53150
302.0	53160
301.625	53170
300.901	53180
300.683	53190
300.887	53200
301.003	53210
301.04	53220
301.035	53230
301.084	53240
301.121	53250
301.133	53260
301.171	53270
301.218	53280
301.217	53290
301.221	53300
301.214	53310
301.163	53320
301.149	53330
301.105	53340
301.083	53350
301.059	53360
301.06	53370
300.988	53380
301.031	53390
301.02	53400
301.012	53410
300.994	53420
301.048	53430
301.024	53440
301.048	53450
300.996	53460
301.014	53470
301.02	53480
301.014	53490
301.016	53500
301.013	53510
301.011	53520
301.028	53530
301.005	53540
301.025	53550
301.052	53560
300.999	53570
301.009	53580
301.008	53590
301.016	53600
300.992	53610
301.008	53620
301.005	53630
301.008	53640
301.006	53650
301.006	53660
301.033	53670
301.03	53680
301.0	53690
300.997	53700
301.011	53710
301.04	53720
301.025	53730
301.025	53740
301.004	53750
301.054	53760
301.005	53770
301.015	53780
301.008	53790
300.999	53800
301.041	53810
301.038	53820
301.004	53830
301.014	53840
301.014	53850
301.026	53860
301.044	53870
301.095	53880
301.142	53890
301.16	53900
301.163	53910
301.179	53920
301.153	53930
301.07	53940
301.062	53950
301.036	53960
301.042	53970
301.019	53980
301.022	53990
300.987	54000
300.869	54010
300.797	54020
301.24	54030
301.883	54040
301.776	54050
301.014	54060
300.703	54070
300.809	54080
300.971	54090
301.045	54100
301.032	54110
301.06	54120
301.091	54130
301.112	54140
301.161	54150
301.174	54160
301.189	54170
301.231	54180
301.196	54190
301.178	54200
301.153	54210
301.103	54220
301.072	54230
301.046	54240
301.032	54250
300.992	54260
301.028	54270
301.023	54280
301.038	54290
301.012	54300
301.004	54310
301.011	54320
301.016	54330
301.014	54340
301.01	54350
301.013	54360
300.997	54370
301.007	54380
300.999	54390
301.018	54400
301.023	54410
300.998	54420
300.992	54430
300.988	54440
301.007	54450
301.012	54460
300.996	54470
300.991	54480
301.011	54490
300.986	54500
301.017	54510
300.998	54520
301.012	54530
301.016	54540
300.969	54550
301.026	54560
301.014	54570
300.982	54580
301.006	54590
300.995	54600
301.018	54610
301.024	54620
301.001	54630
301.009	54640
301.045	54650
301.005	54660
301.033	54670
300.98	54680
301.0	54690
301.004	54700
300.996	54710
300.973	54720
301.02	54730
301.042	54740
301.055	54750
301.049	54760
301.126	54770
301.099	54780
301.138	54790
301.142	54800
301.135	54810
301.113	54820
301.051	54830
301.063	54840
301.028	54850
300.995	54860
300.992	54870
301.017	54880
300.92	54890
300.774	54900
301.067	54910
301.75	54920
301.908	54930
301.181	54940
300.719	54950
300.759	54960
300.948	54970
301.047	54980
301.046	54990
301.055	55000
301.04	55010
301.084	55020
301.141	55030
301.186	55040
301.226	55050
301.178	55060
301.181	55070
301.146	55080
301.137	55090
301.093	55100
301.073	55110
301.058	55120
301.048	55130
301.02	55140
301.019	55150
301.011	55160
301.025	55170
301.02	55180
301.023	55190
301.021	55200
300.969	55210
301.027	55220
300.979	55230
301.014	55240
300.972	55250
300.998	55260
300.986	55270
300.991	55280
301.007	55290
301.0	55300
301.006	55310
300.995	55320
301.007	55330
301.01	55340
300.974	55350
300.993	55360
300.982	55370
300.992	55380
300.996	55390
300.966	55400
301.011	55410
301.001	55420
300.988	55430
301.036	55440
301.006	55450
301.018	55460
301.0	55470
300.984	55480
301.014	55490
300.984	55500
300.983	55510
300.981	55520
300.967	55530
300.984	55540
301.02	55550
300.983	55560
301.0	55570
300.993	55580
301.004	55590
300.99	55600
301.017	55610
300.98	55620
301.008	55630
301.022	55640
301.086	55650
301.129	55660
301.129	55670
301.122	55680
301.115	55690
301.079	55700
301.058	55710
300.994	55720
301.018	55730
300.976	55740
300.99	55750
300.98	55760
300.922	55770
300.772	55780
300.943	55790
301.582	55800
301.924	55810
301.37	55820
300.776	55830
300.698	55840
300.904	55850
300.987	55860
301.002	55870
301.025	55880
301.039	55890
301.105	55900
301.122	55910
301.177	55920
301.167	55930
301.203	55940
301.209	55950
301.159	55960
301.134	55970
301.112	55980
301.054	55990
301.033	56000
301.015	56010
301.019	56020
300.995	56030
300.998	56040
300.989	56050
301.001	56060
300.986	56070
300.954	56080
300.984	56090
300.956	56100
300.983	56110
300.97	56120
300.98	56130
300.992	56140
301.002	56150
301.007	56160
300.997	56170
300.959	56180
300.996	56190
300.988	56200
300.993	56210
300.973	56220
300.987	56230
301.005	56240
301.013	56250
300.973	56260
300.979	56270
300.995	56280
300.972	56290
300.984	56300
300.99	56310
300.984	56320
300.977	56330
300.973	56340
301.014	56350
300.986	56360
300.957	56370
300.995	56380
300.954	56390
300.952	56400
301.01	56410
300.974	56420
300.977	56430
301.012	56440
300.992	56450
300.988	56460
301.0	56470
300.964	56480
300.983	56490
300.991	56500
301.025	56510
301.032	56520
301.077	56530
301.093	56540
301.114	56550
301.135	56560
301.111	56570
301.09	56580
301.085	56590
301.017	56600
301.015	56610
301.001	56620
300.982	56630
300.992	56640
300.972	56650
300.767	56660
300.86	56670
301.376	56680
301.933	56690
301.543	56700
300.887	56710
300.659	56720
300.881	56730
300.963	56740
301.006	56750
301.004	56760
301.06	56770
301.058	56780
301.087	56790
301.132	56800
301.168	56810
301.201	56820
301.158	56830
301.154	56840
301.151	56850
301.081	56860
301.084	56870
301.04	56880
300.996	56890
301.022	56900
300.953	56910
300.988	56920
300.965	56930
300.948	56940
300.964	56950
300.989	56960
300.977	56970
301.007	56980
300.989	56990
300.999	57000
300.993	57010
300.982	57020
300.989	57030
300.976	57040
300.984	57050
300.964	57060
300.96	57070
300.986	57080
300.959	57090
301.002	57100
301.011	57110
300.948	57120
300.974	57130
301.007	57140
300.997	57150
300.983	57160
300.969	57170
300.964	57180
301.0	57190
300.956	57200
301.011	57210
300.983	57220
300.984	57230
301.001	57240
300.974	57250
300.979	57260
301.003	57270
301.01	57280
301.013	57290
300.988	57300
300.991	57310
300.987	57320
300.976	57330
300.953	57340
300.984	57350
300.989	57360
300.999	57370
300.975	57380
301.003	57390
301.043	57400
301.035	57410
301.096	57420
301.125	57430
301.135	57440
301.129	57450
301.084	57460
301.068	57470
301.024	57480
301.009	57490
301.0	57500
300.973	57510
301.021	57520
300.973	57530
300.827	57540
300.752	57550
301.263	57560
301.887	57570
301.732	57580
300.969	57590
300.654	57600
300.813	57610
300.959	57620
301.011	57630
301.022	57640
301.073	57650
301.06	57660
301.092	57670
301.117	57680
301.178	57690
301.175	57700
301.174	57710
301.156	57720
301.153	57730
301.103	57740
301.09	57750
301.027	57760
301.013	57770
300.997	57780
301.006	57790
300.986	57800
300.976	57810
301.0	57820
300.993	57830
300.982	57840
300.974	57850
300.957	57860
300.995	57870
300.975	57880
300.982	57890
301.019	57900
300.976	57910
300.988	57920
300.967	57930
300.962	57940
300.991	57950
300.999	57960
300.992	57970
300.986	57980
300.964	57990
300.986	58000
300.996	58010
300.957	58020
300.958	58030
300.963	58040
300.968	58050
301.002	58060
300.962	58070
300.98	58080
300.961	58090
300.995	58100
300.988	58110
301.005	58120
300.983	58130
301.013	58140
300.993	58150
300.992	58160
300.996	58170
300.968	58180
300.983	58190
300.946	58200
300.991	58210
300.977	58220
300.982	58230
300.978	58240
300.996	58250
300.987	58260
301.013	58270
301.026	58280
301.045	58290
301.065	58300
301.119	58310
301.149	58320
301.126	58330
301.114	58340
301.076	58350
301.069	58360
301.03	58370
301.001	58380
300.978	58390
301.027	58400
300.976	58410
300.877	58420
300.777	58430
301.11	58440
301.773	58450
301.819	58460
301.129	58470
300.664	58480
300.756	58490
300.933	58500
300.984	58510
301.042	58520
301.034	58530
301.091	58540
301.078	58550
301.114	58560
301.145	58570
301.168	58580
301.181	58590
301.191	58600
301.118	58610
301.098	58620
301.05	58630
301.038	58640
301.03	58650
301.022	58660
301.004	58670
300.97	58680
300.997	58690
300.974	58700
301.011	58710
300.997	58720
300.983	58730
301.022	58740
300.988	58750
300.992	58760
300.996	58770
300.975	58780
300.987	58790
300.963	58800
301.007	58810
300.942	58820
301.002	58830
300.979	58840
301.016	58850
300.997	58860
300.991	58870
300.933	58880
300.952	58890
300.962	58900
300.988	58910
300.974	58920
301.015	58930
300.985	58940
300.966	58950
300.976	58960
300.972	58970
300.98	58980
300.988	58990
300.983	59000
300.991	59010
300.992	59020
300.992	59030
301.001	59040
300.993	59050
300.991	59060
300.987	59070
300.992	59080
300.968	59090
300.982	59100
300.976	59110
300.978	59120
300.981	59130
301.009	59140
300.991	59150
301.041	59160
301.064	59170
301.096	59180
301.106	59190
301.14	59200
301.115	59210
301.129	59220
301.109	59230
301.066	59240
301.026	59250
301.019	59260
300.991	59270
300.994	59280
300.978	59290
300.959	59300
300.768	59310
300.975	59320
301.608	59330
301.926	59340
301.3	59350
300.719	59360
300.757	59370
300.918	59380
301.005	59390
301.043	59400
301.043	59410
301.033	59420
301.082	59430
301.12	59440
301.167	59450
301.182	59460
301.183	59470
301.179	59480
301.179	59490
301.124	59500
301.069	59510
301.054	59520
301.031	59530
301.033	59540
301.004	59550
301.005	59560
300.998	59570
301.014	59580
300.983	59590
301.011	59600
301.011	59610
300.984	59620
301.0	59630
300.995	59640
300.983	59650
301.027	59660
300.998	59670
301.007	59680
300.981	59690
300.962	59700
300.988	59710
300.992	59720
300.982	59730
301.0	59740
300.984	59750
300.994	59760
301.035	59770
301.008	59780
300.986	59790
300.971	59800
300.996	59810
301.001	59820
301.006	59830
301.024	59840
301.016	59850
300.997	59860
300.99	59870
301.001	59880
301.002	59890
301.0	59900
301.012	59910
300.988	59920
301.0	59930
301.024	59940
301.021	59950
301.009	59960
301.008	59970
301.013	59980
300.999	59990
301.006	60000
300.987	60010
300.977	60020
301.007	60030
301.011	60040
301.025	60050
301.098	60060
301.113	60070
301.127	60080
301.142	60090
301.134	60100
301.134	60110
301.095	60120
301.057	60130
301.028	60140
301.037	60150
300.993	60160
301.013	60170
300.961	60180
300.769	60190
300.902	60200
301.453	60210
302.004	60220
301.508	60230
300.844	60240
300.681	60250
300.89	60260
301.025	60270
301.031	60280
301.049	60290
301.05	60300
301.074	60310
301.142	60320
301.166	60330
301.192	60340
301.193	60350
301.204	60360
301.157	60370
301.138	60380
301.119	60390
301.107	60400
301.018	60410
301.063	60420
301.051	60430
301.012	60440
301.013	60450
301.012	60460
301.002	60470
301.009	60480
301.026	60490
300.996	60500
301.028	60510
300.993	60520
301.02	60530
300.983	60540
301.019	60550
301.021	60560
301.027	60570
301.03	60580
301.02	60590
300.985	60600
300.976	60610
301.002	60620
300.978	60630
301.022	60640
301.017	60650
301.029	60660
301.011	60670
301.036	60680
300.996	60690
301.009	60700
301.01	60710
300.996	60720
300.995	60730
301.027	60740
301.03	60750
300.998	60760
301.006	60770
301.025	60780
301.022	60790
301.027	60800
300.995	60810
300.99	60820
301.004	60830
300.996	60840
301.004	60850
300.999	60860
300.998	60870
301.009	60880
301.004	60890
301.03	60900
301.013	60910
301.037	60920
301.073	60930
301.082	60940
301.158	60950
301.163	60960
301.135	60970
301.153	60980
301.15	60990
301.102	61000
301.085	61010
301.038	61020
301.046	61030
301.026	61040
301.025	61050
300.992	61060
300.87	61070
300.816	61080
301.31	61090
301.943	61100
301.709	61110
300.97	61120
300.663	61130
300.849	61140
300.969	61150
301.032	61160
301.055	61170
301.071	61180
301.107	61190
301.11	61200
301.191	61210
301.195	61220
301.225	61230
301.196	61240
301.183	61250
301.193	61260
301.12	61270
301.096	61280
301.051	61290
301.049	61300
301.031	61310
301.022	61320
301.011	61330
301.032	61340
301.016	61350
301.008	61360
301.016	61370
301.008	61380
301.003	61390
301.028	61400
301.028	61410
301.0	61420
300.99	61430
301.014	61440
301.041	61450
301.025	61460
301.045	61470
301.04	61480
301.035	61490
301.021	61500
301.026	61510
301.008	61520
301.006	61530
301.029	61540
301.037	61550
301.015	61560
300.995	61570
300.995	61580
301.007	61590
301.014	61600
301.012	61610
301.019	61620
300.998	61630
301.025	61640
301.026	61650
301.04	61660
301.029	61670
301.015	61680
301.026	61690
301.009	61700
301.0	61710
300.995	61720
301.018	61730
301.024	61740
301.016	61750
300.989	61760
301.002	61770
301.025	61780
301.003	61790
301.01	61800
301.061	61810
301.093	61820
301.132	61830
301.157	61840
301.171	61850
301.182	61860
301.129	61870
301.105	61880
301.052	61890
301.039	61900
301.021	61910
301.064	61920
301.015	61930
301.021	61940
300.88	61950
300.789	61960
301.179	61970
301.837	61980
301.861	61990
301.127	62000
300.749	62010
300.822	62020
301.007	62030
301.017	62040
301.029	62050
301.064	62060
301.103	62070
301.142	62080
301.144	62090
301.181	62100
301.231	62110
301.198	62120
301.193	62130
301.191	62140
301.117	62150
301.095	62160
301.096	62170
301.067	62180
301.034	62190
301.023	62200
301.019	62210
301.015	62220
301.017	62230
300.997	62240
301.029	62250
301.026	62260
300.988	62270
301.019	62280
301.038	62290
300.995	62300
301.028	62310
300.99	62320
301.049	62330
301.024	62340
301.011	62350
301.042	62360
301.019	62370
301.013	62380
301.054	62390
301.016	62400
301.028	62410
301.031	62420
301.046	62430
301.025	62440
301.023	62450
301.031	62460
300.995	62470
301.015	62480
300.994	62490
301.035	62500
301.013	62510
301.038	62520
301.022	62530
301.011	62540
301.017	62550
301.02	62560
301.014	62570
301.019	62580
301.021	62590
301.021	62600
301.033	62610
301.013	62620
301.001	62630
301.042	62640
301.027	62650
301.022	62660
301.013	62670
301.061	62680
301.054	62690
301.067	62700
301.123	62710
301.136	62720
301.149	62730
301.162	62740
301.124	62750
301.13	62760
301.081	62770
301.039	62780
301.012	62790
301.042	62800
301.037	62810
301.011	62820
300.954	62830
300.832	62840
301.042	62850
301.674	62860
301.935	62870
301.278	62880
300.767	62890
300.72	62900
300.975	62910
301.023	62920
301.036	62930
301.048	62940
301.086	62950
301.118	62960
301.139	62970
301.191	62980
301.217	62990
301.199	63000
301.217	63010
301.156	63020
301.181	63030
301.126	63040
301.078	63050
301.066	63060
301.064	63070
301.026	63080
301.018	63090
301.02	63100
300.998	63110
301.033	63120
301.035	63130
301.013	63140
301.029	63150
301.031	63160
301.035	63170
301.008	63180
301.018	63190
301.023	63200
300.986	63210
301.013	63220
301.034	63230
301.03	63240
301.009	63250
301.018	63260
301.016	63270
300.997	63280
301.047	63290
300.999	63300
300.997	63310
301.014	63320
301.032	63330
301.005	63340
301.0	63350
301.001	63360
301.007	63370
300.991	63380
301.019	63390
300.989	63400
301.022	63410
301.01	63420
301.017	63430
300.99	63440
300.988	63450
301.055	63460
301.018	63470
301.019	63480
301.02	63490
301.025	63500
300.978	63510
301.009	63520
301.015	63530
301.033	63540
301.045	63550
301.009	63560
301.025	63570
301.056	63580
301.083	63590
301.109	63600
301.153	63610
301.212	63620
301.137	63630
301.106	63640
301.09	63650
301.068	63660
301.043	63670
301.041	63680
300.993	63690
301.032	63700
300.951	63710
300.798	63720
300.936	63730
301.529	63740
301.983	63750
301.446	63760
300.783	63770
300.705	63780
300.869	63790
301.015	63800
301.044	63810
301.055	63820
301.083	63830
301.109	63840
301.134	63850
301.168	63860
301.181	63870
301.195	63880
301.199	63890
301.19	63900
301.169	63910
301.136	63920
301.087	63930
301.074	63940
301.057	63950
301.017	63960
301.014	63970
301.04	63980
301.022	63990
301.027	64000
301.0	64010
300.995	64020
300.986	64030
300.987	64040
301.031	64050
301.022	64060
300.991	64070
301.006	64080
301.001	64090
300.988	64100
301.001	64110
301.024	64120
301.033	64130
301.018	64140
301.049	64150
301.021	64160
300.999	64170
300.997	64180
301.03	64190
301.005	64200
301.027	64210
301.02	64220
300.991	64230
301.01	64240
301.011	64250
301.014	64260
300.999	64270
301.018	64280
301.017	64290
300.964	64300
301.01	64310
300.994	64320
301.012	64330
301.016	64340
301.008	64350
301.024	64360
301.003	64370
301.028	64380
301.027	64390
300.996	64400
301.029	64410
301.015	64420
301.012	64430
300.989	64440
301.047	64450
301.066	64460
301.053	64470
301.124	64480
301.132	64490
301.151	64500
301.116	64510
301.157	64520
301.092	64530
301.058	64540
301.04	64550
301.004	64560
301.003	64570
300.984	64580
300.985	64590
300.828	64600
300.836	64610
301.341	64620
301.948	64630
301.689	64640
300.952	64650
300.643	64660
300.87	64670
300.979	64680
301.033	64690
301.048	64700
301.055	64710
301.131	64720
301.121	64730
301.164	64740
301.172	64750
301.222	64760
301.174	64770
301.177	64780
301.168	64790
301.124	64800
301.104	64810
301.05	64820
301.061	64830
301.014	64840
301.013	64850
301.038	64860
300.988	64870
300.983	64880
301.008	64890
301.024	64900
300.991	64910
301.011	64920
301.027	64930
300.966	64940
300.999	64950
300.977	64960
301.006	64970
300.971	64980
300.979	64990
301.021	65000
301.003	65010
300.994	65020
301.01	65030
300.992	65040
301.009	65050
301.016	65060
300.973	65070
300.979	65080
300.979	65090
301.049	65100
301.004	65110
300.981	65120
301.019	65130
301.007	65140
300.966	65150
301.023	65160
300.972	65170
300.993	65180
300.971	65190
301.042	65200
300.98	65210
301.015	65220
301.002	65230
300.992	65240
301.007	65250
300.979	65260
300.997	65270
300.981	65280
301.031	65290
300.995	65300
301.002	65310
300.998	65320
301.042	65330
301.037	65340
301.043	65350
301.108	65360
301.13	65370
301.166	65380
301.135	65390
301.147	65400
301.077	65410
301.071	65420
301.023	65430
301.003	65440
300.977	65450
301.01	65460
300.995	65470
300.878	65480
300.769	65490
301.183	65500
301.873	65510
301.797	65520
301.081	65530
300.668	65540
300.768	65550
300.959	65560
301.018	65570
301.047	65580
301.042	65590
301.054	65600
301.134	65610
301.159	65620
301.199	65630
301.179	65640
301.173	65650
301.189	65660
301.146	65670
301.129	65680
301.093	65690
301.06	65700
301.033	65710
301.018	65720
301.006	65730
301.006	65740
300.999	65750
301.019	65760
300.996	65770
300.982	65780
300.983	65790
301.018	65800
300.97	65810
300.996	65820
300.976	65830
300.977	65840
300.995	65850
300.987	65860
300.972	65870
300.992	65880
301.054	65890
300.994	65900
300.986	65910
300.984	65920
300.999	65930
300.979	65940
300.984	65950
301.008	65960
301.007	65970
300.985	65980
300.971	65990
301.005	66000
300.97	66010
300.994	66020
300.993	66030
301.009	66040
301.004	66050
300.989	66060
301.009	66070
300.994	66080
301.006	66090
300.996	66100
300.967	66110
300.96	66120
300.988	66130
300.976	66140
300.973	66150
300.971	66160
300.983	66170
300.99	66180
300.978	66190
301.014	66200
301.009	66210
301.016	66220
301.064	66230
301.049	66240
301.112	66250
301.122	66260
301.125	66270
301.093	66280
301.088	66290
301.036	66300
301.034	66310
301.015	66320
300.999	66330
300.997	66340
301.004	66350
300.911	66360
300.744	66370
301.031	66380
301.674	66390
301.862	66400
301.198	66410
300.723	66420
300.732	66430
300.949	66440
301.003	66450
301.031	66460
301.03	66470
301.082	66480
301.086	66490
301.119	66500
301.119	66510
301.21	66520
301.162	66530
301.182	66540
301.144	66550
301.129	66560
301.106	66570
301.068	66580
301.049	66590
301.002	66600
300.988	66610
300.987	66620
301.007	66630
300.983	66640
301.01	66650
300.99	66660
300.996	66670
300.965	66680
300.974	66690
300.973	66700
300.989	66710
300.986	66720
300.98	66730
301.017	66740
300.989	66750
300.98	66760
301.002	66770
300.935	66780
300.977	66790
300.973	66800
300.968	66810
300.98	66820
300.971	66830
300.966	66840
300.933	66850
300.997	66860
300.993	66870
300.999	66880
300.981	66890
301.005	66900
301.0	66910
300.969	66920
301.004	66930
300.949	66940
300.977	66950
300.984	66960
300.97	66970
300.95	66980
301.001	66990
300.983	67000
300.994	67010
300.977	67020
300.98	67030
300.977	67040
300.954	67050
300.992	67060
300.952	67070
300.939	67080
301.025	67090
301.012	67100
301.044	67110
301.082	67120
301.098	67130
301.109	67140
301.128	67150
301.142	67160
301.077	67170
301.023	67180
301.035	67190
301.01	67200
301.003	67210
300.985	67220
300.988	67230
300.918	67240
300.763	67250
300.917	67260
301.524	67270
301.94	67280
301.395	67290
300.765	67300
300.673	67310
300.895	67320
300.986	67330
301.017	67340
301.015	67350
301.006	67360
301.092	67370
301.122	67380
301.134	67390
301.189	67400
301.166	67410
301.15	67420
301.146	67430
301.123	67440
301.107	67450
301.053	67460
301.028	67470
301.043	67480
300.96	67490
300.979	67500
300.996	67510
300.954	67520
301.001	67530
300.978	67540
300.945	67550
300.969	67560
300.988	67570
301.006	67580
300.953	67590
300.96	67600
300.971	67610
300.972	67620
301.006	67630
300.975	67640
300.963	67650
300.995	67660
300.963	67670
300.958	67680
300.979	67690
300.975	67700
300.952	67710
300.975	67720
300.985	67730
300.968	67740
300.957	67750
300.946	67760
300.992	67770
300.981	67780
300.973	67790
300.988	67800
300.991	67810
300.955	67820
301.012	67830
300.988	67840
300.981	67850
300.995	67860
300.979	67870
300.981	67880
300.975	67890
300.98	67900
300.99	67910
300.979	67920
301.013	67930
300.986	67940
300.998	67950
300.998	67960
300.991	67970
300.999	67980
300.999	67990
301.049	68000
301.097	68010
301.105	68020
301.107	68030
301.11	68040
301.074	68050
301.051	68060
301.018	68070
301.007	68080
301.027	68090
300.965	68100
300.973	68110
300.943	68120
300.796	68130
300.874	68140
301.37	68150
301.938	68160
301.604	68170
300.886	68180
300.648	68190
300.824	68200
300.959	68210
301.004	68220
301.004	68230
301.063	68240
301.09	68250
301.141	68260
301.19	68270
301.158	68280
301.188	68290
301.218	68300
301.146	68310
301.152	68320
301.106	68330
301.062	68340
301.044	68350
301.03	68360
301.02	68370
301.013	68380
300.984	68390
301.002	68400
301.013	68410
301.0	68420
300.981	68430
300.959	68440
301.026	68450
300.946	68460
300.962	68470
300.982	68480
300.961	68490
300.96	68500
301.032	68510
300.995	68520
300.96	68530
300.965	68540
301.008	68550
300.967	68560
300.993	68570
300.968	68580
301.006	68590
300.961	68600
300.972	68610
300.973	68620
300.994	68630
301.014	68640
300.974	68650
300.989	68660
300.986	68670
300.97	68680
300.99	68690
300.981	68700
301.0	68710
301.019	68720
301.002	68730
300.964	68740
301.002	68750
300.97	68760
300.972	68770
301.007	68780
301.008	68790
301.03	68800
300.99	68810
300.981	68820
300.988	68830
301.013	68840
300.977	68850
301.001	68860
301.035	68870
301.048	68880
301.065	68890
301.129	68900
301.115	68910
301.123	68920
301.099	68930
301.063	68940
301.036	68950
301.012	68960
301.004	68970
301.009	68980
300.999	68990
300.923	69000
300.845	69010
300.791	69020
301.217	69030
301.903	69040
301.754	69050
300.997	69060
300.668	69070
300.794	69080
301.014	69090
301.002	69100
301.035	69110
301.048	69120
301.06	69130
301.111	69140
301.13	69150
301.192	69160
301.194	69170
301.184	69180
301.189	69190
301.167	69200
301.095	69210
301.099	69220
301.031	69230
301.047	69240
301.015	69250
301.013	69260
301.004	69270
301.031	69280
301.008	69290
301.004	69300
301.02	69310
300.992	69320
300.997	69330
301.0	69340
300.981	69350
301.013	69360
300.984	69370
300.981	69380
300.977	69390
300.984	69400
300.98	69410
301.013	69420
301.012	69430
300.978	69440
300.975	69450
300.972	69460
300.981	69470
301.001	69480
300.997	69490
300.985	69500
301.0	69510
301.005	69520
301.021	69530
300.992	69540
300.965	69550
301.013	69560
300.991	69570
300.986	69580
300.986	69590
300.992	69600
300.982	69610
301.01	69620
300.992	69630
300.993	69640
300.996	69650
301.001	69660
300.995	69670
301.012	69680
301.021	69690
300.968	69700
300.988	69710
301.019	69720
300.998	69730
300.98	69740
301.015	69750
301.08	69760
301.141	69770
301.119	69780
301.151	69790
301.112	69800
301.121	69810
301.071	69820
301.045	69830
301.049	69840
301.017	69850
301.025	69860
300.991	69870
300.963	69880
300.915	69890
300.757	69900
301.058	69910
301.715	69920
301.89	69930
301.192	69940
300.744	69950
300.749	69960
300.976	69970
300.995	69980
301.027	69990
301.034	70000
301.093	70010
301.108	70020
301.122	70030
301.166	70040
301.206	70050
301.201	70060
301.197	70070
301.168	70080
301.134	70090
301.094	70100
301.062	70110
301.083	70120
300.991	70130
301.043	70140
301.0	70150
301.028	70160
300.995	70170
300.958	70180
301.003	70190
300.99	70200
301.008	70210
301.008	70220
301.009	70230
300.975	70240
301.01	70250
301.044	70260
301.02	70270
301.002	70280
301.014	70290
301.003	70300
300.982	70310
300.998	70320
301.001	70330
301.014	70340
301.002	70350
301.023	70360
301.019	70370
301.003	70380
301.014	70390
301.016	70400
300.999	70410
300.959	70420
301.027	70430
301.007	70440
301.011	70450
300.979	70460
300.999	70470
301.008	70480
301.009	70490
300.997	70500
301.018	70510
301.024	70520
301.017	70530
301.009	70540
301.005	70550
301.005	70560
300.991	70570
300.993	70580
301.006	70590
300.998	70600
301.006	70610
301.035	70620
301.033	70630
301.077	70640
301.081	70650
301.164	70660
301.111	70670
301.137	70680
301.121	70690
301.103	70700
301.092	70710
301.034	70720
301.025	70730
301.008	70740
301.0	70750
301.042	70760
300.959	70770
300.783	70780
300.969	70790
301.573	70800
301.976	70810
301.353	70820
300.798	70830
300.689	70840
300.92	70850
301.056	70860
301.045	70870
301.037	70880
301.118	70890
301.105	70900
301.155	70910
301.158	70920
301.18	70930
301.184	70940
301.197	70950
301.147	70960
301.152	70970
301.123	70980
301.053	70990
301.039	71000
301.023	71010
301.022	71020
301.037	71030
301.003	71040
301.016	71050
301.011	71060
301.016	71070
301.02	71080
301.036	71090
301.014	71100
301.036	71110
301.015	71120
301.031	71130
301.048	71140
300.998	71150
301.016	71160
301.006	71170
301.018	71180
301.041	71190
301.02	71200
301.019	71210
301.018	71220
301.032	71230
301.001	71240
301.011	71250
301.017	71260
301.018	71270
301.01	71280
301.03	71290
301.022	71300
301.006	71310
300.998	71320
300.996	71330
301.016	71340
301.039	71350
300.998	71360
301.028	71370
301.006	71380
300.98	71390
300.997	71400
301.022	71410
301.023	71420
301.004	71430
300.998	71440
301.039	71450
301.009	71460
301.013	71470
301.038	71480
301.029	71490
301.034	71500
301.032	71510
301.064	71520
301.098	71530
301.104	71540
301.163	71550
301.144	71560
301.159	71570
301.133	71580
301.073	71590
301.065	71600
301.04	71610
301.019	71620
301.001	71630
301.021	71640
300.987	71650
300.815	71660
300.892	71670
301.42	71680
301.981	71690
301.542	71700
300.882	71710
300.693	71720
300.879	71730
301.024	71740
301.052	71750
301.097	71760
301.077	71770
301.098	71780
301.158	71790
301.182	71800
301.182	71810
301.193	71820
301.198	71830
301.214	71840
301.156	71850
301.127	71860
301.085	71870
301.056	71880
301.04	71890
301.033	71900
301.016	71910
301.027	71920
300.999	71930
301.006	71940
301.016	71950
301.032	71960
301.012	71970
301.032	71980
301.039	71990
300.995	72000
301.018	72010
301.019	72020
301.028	72030
301.014	72040
301.004	72050
301.011	72060
301.024	72070
301.029	72080
301.0	72090
301.019	72100
301.03	72110
301.05	72120
301.009	72130
301.035	72140
301.057	72150
301.016	72160
301.011	72170
301.048	72180
301.036	72190
301.021	72200
301.026	72210
301.006	72220
301.003	72230
301.011	72240
301.021	72250
301.0	72260
301.009	72270
301.019	72280
301.01	72290
300.999	72300
301.017	72310
301.033	72320
301.04	72330
301.038	72340
301.072	72350
301.026	72360
301.045	72370
301.008	72380
301.059	72390
301.062	72400
301.083	72410
301.134	72420
301.166	72430
301.168	72440
301.129	72450
301.161	72460
301.096	72470
301.061	72480
301.063	72490
301.027	72500
301.042	72510
301.029	72520
300.994	72530
300.871	72540
300.831	72550
301.288	72560
301.964	72570
301.748	72580
301.045	72590
300.686	72600
300.879	72610
301.019	72620
301.039	72630
301.046	72640
301.072	72650
301.133	72660
301.126	72670
301.165	72680
301.172	72690
301.207	72700
301.2	72710
301.196	72720
301.178	72730
301.178	72740
301.101	72750
301.047	72760
301.054	72770
301.067	72780
301.042	72790
301.042	72800
301.01	72810
301.008	72820
301.045	72830
301.047	72840
301.048	72850
301.025	72860
301.027	72870
301.022	72880
301.049	72890
301.033	72900
301.02	72910
300.997	72920
301.0	72930
301.036	72940
301.038	72950
301.014	72960
301.024	72970
301.027	72980
300.993	72990
301.037	73000
301.016	73010
301.014	73020
301.02	73030
301.028	73040
300.99	73050
301.036	73060
301.039	73070
301.01	73080
301.03	73090
301.036	73100
301.018	73110
301.021	73120
301.001	73130
300.995	73140
300.997	73150
301.038	73160
301.027	73170
301.047	73180
301.034	73190
301.031	73200
300.991	73210
300.995	73220
301.021	73230
301.01	73240
301.026	73250
301.033	73260
301.053	73270
301.025	73280
301.07	73290
301.099	73300
301.167	73310
301.16	73320
301.164	73330
301.146	73340
301.092	73350
301.075	73360
301.043	73370
301.033	73380
301.019	73390
301.025	73400
301.024	73410
300.916	73420
300.79	73430
301.122	73440
301.788	73450
301.866	73460
301.158	73470
300.693	73480
300.796	73490
300.974	73500
301.028	73510
301.055	73520
301.057	73530
301.052	73540
301.118	73550
301.176	73560
301.176	73570
301.196	73580
301.2	73590
301.206	73600
301.18	73610
301.116	73620
301.129	73630
301.069	73640
301.081	73650
301.037	73660
301.029	73670
301.002	73680
301.028	73690
301.01	73700
301.01	73710
301.014	73720
301.014	73730
301.0	73740
301.019	73750
301.022	73760
301.01	73770
301.013	73780
300.996	73790
301.036	73800
300.999	73810
301.007	73820
301.02	73830
300.989	73840
301.018	73850
301.044	73860
301.037	73870
301.006	73880
301.037	73890
300.998	73900
301.022	73910
301.021	73920
301.002	73930
301.002	73940
301.014	73950
300.96	73960
300.993	73970
301.039	73980
301.01	73990
300.995	74000
301.02	74010
300.985	74020
301.02	74030
301.028	74040
301.024	74050
301.014	74060
301.041	74070
300.992	74080
301.04	74090
301.037	74100
300.997	74110
300.999	74120
301.03	74130
301.019	74140
301.048	74150
301.049	74160
301.069	74170
301.076	74180
301.14	74190
301.178	74200
301.151	74210
301.133	74220
301.115	74230
301.059	74240
301.076	74250
301.015	74260
301.008	74270
301.025	74280
300.997	74290
300.942	74300
300.775	74310
301.015	74320
301.61	74330
301.944	74340
301.338	74350
300.759	74360
300.758	74370
300.928	74380
301.028	74390
301.056	74400
301.031	74410
301.086	74420
301.097	74430
301.16	74440
301.182	74450
301.215	74460
301.173	74470
301.202	74480
301.135	74490
301.134	74500
301.101	74510
301.095	74520
301.088	74530
301.032	74540
301.01	74550
301.016	74560
301.002	74570
300.992	74580
301.03	74590
301.024	74600
300.996	74610
301.001	74620
300.996	74630
300.98	74640
301.015	74650
300.987	74660
301.03	74670
300.996	74680
301.014	74690
300.981	74700
301.02	74710
301.038	74720
301.001	74730
300.997	74740
300.966	74750
301.02	74760
301.017	74770
301.016	74780
300.999	74790
300.986	74800
300.977	74810
301.015	74820
301.012	74830
301.0	74840
300.98	74850
301.019	74860
301.0	74870
300.995	74880
300.993	74890
301.008	74900
300.999	74910
300.974	74920
300.987	74930
301.023	74940
301.011	74950
301.007	74960
300.979	74970
300.982	74980
301.037	74990
300.99	75000
301.012	75010
301.027	75020
301.005	75030
301.053	75040
301.04	75050
301.102	75060
301.104	75070
301.111	75080
301.167	75090
301.134	75100
301.097	75110
301.058	75120
301.069	75130
301.023	75140
301.004	75150
300.975	75160
300.996	75170
300.967	75180
300.827	75190
300.873	75200
301.478	75210
301.965	75220
301.506	75230
300.845	75240
300.659	75250
300.906	75260
300.965	75270
301.025	75280
301.022	75290
301.078	75300
301.063	75310
301.123	75320
301.159	75330
301.191	75340
301.184	75350
301.182	75360
301.162	75370
301.124	75380
301.107	75390
301.074	75400
301.042	75410
301.017	75420
301.013	75430
300.994	75440
300.977	75450
300.993	75460
301.005	75470
300.97	75480
301.028	75490
301.034	75500
301.025	75510
300.983	75520
301.026	75530
300.993	75540
301.006	75550
300.992	75560
301.005	75570
301.005	75580
300.968	75590
301.012	75600
301.01	75610
300.99	75620
300.985	75630
300.976	75640
301.01	75650
301.0	75660
301.001	75670
301.011	75680
300.98	75690
300.997	75700
300.999	75710
301.005	75720
300.998	75730
301.024	75740
300.978	75750
300.976	75760
301.007	75770
301.02	75780
301.004	75790
301.019	75800
300.982	75810
300.995	75820
300.985	75830
300.992	75840
300.977	75850
301.003	75860
300.982	75870
300.993	75880
300.986	75890
300.993	75900
301.004	75910
301.015	75920
300.989	75930
301.063	75940
301.081	75950
301.14	75960
301.129	75970
301.146	75980
301.102	75990
301.049	76000
301.007	76010
300.997	76020
300.989	76030
301.005	76040
301.0	76050
300.981	76060
300.823	76070
300.814	76080
301.289	76090
301.912	76100
301.69	76110
300.962	76120
300.667	76130
300.816	76140
300.972	76150
301.027	76160
301.017	76170
301.064	76180
301.069	76190
301.101	76200
301.154	76210
301.155	76220
301.182	76230
301.195	76240
301.171	76250
301.133	76260
301.107	76270
301.085	76280
301.037	76290
301.034	76300
300.991	76310
301.012	76320
300.985	76330
300.97	76340
300.987	76350
300.978	76360
301.019	76370
300.997	76380
300.962	76390
300.947	76400
300.98	76410
301.006	76420
300.997	76430
300.979	76440
300.996	76450
300.978	76460
300.965	76470
300.999	76480
300.989	76490
300.958	76500
300.971	76510
300.991	76520
300.963	76530
300.988	76540
300.992	76550
300.996	76560
300.996	76570
300.998	76580
300.994	76590
300.992	76600
301.005	76610
300.979	76620
300.997	76630
300.971	76640
300.998	76650
300.979	76660
301.022	76670
300.977	76680
300.965	76690
300.985	76700
300.98	76710
300.981	76720
300.982	76730
300.942	76740
300.98	76750
300.978	76760
300.963	76770
300.964	76780
300.997	76790
301.007	76800
301.017	76810
301.048	76820
301.064	76830
301.111	76840
301.145	76850
301.128	76860
301.083	76870
301.073	76880
301.035	76890
301.005	76900
301.011	76910
301.002	76920
300.976	76930
300.983	76940
300.836	76950
300.746	76960
301.139	76970
301.798	76980
301.832	76990
301.082	77000
300.681	77010
300.763	77020
300.943	77030
300.994	77040
301.017	77050
301.04	77060
301.074	77070
301.098	77080
301.101	77090
301.162	77100
301.178	77110
301.172	77120
301.164	77130
301.143	77140
301.114	77150
301.078	77160
301.032	77170
301.041	77180
301.013	77190
300.98	77200
300.993	77210
301.024	77220
301.002	77230
300.971	77240
300.974	77250
300.994	77260
300.981	77270
300.987	77280
300.98	77290
300.971	77300
300.999	77310
300.967	77320
300.991	77330
300.994	77340
300.965	77350
300.994	77360
300.992	77370
300.962	77380
300.99	77390
300.989	77400
300.98	77410
300.974	77420
300.994	77430
300.96	77440
300.977	77450
300.988	77460
300.983	77470
300.995	77480
300.956	77490
300.974	77500
300.984	77510
301.0	77520
300.985	77530
300.982	77540
300.977	77550
300.974	77560
300.954	77570
300.995	77580
300.997	77590
300.99	77600
300.961	77610
301.012	77620
301.002	77630
300.956	77640
300.966	77650
300.952	77660
300.982	77670
300.996	77680
301.02	77690
301.066	77700
301.083	77710
301.096	77720
301.14	77730
301.121	77740
301.113	77750
301.089	77760
301.051	77770
300.993	77780
301.025	77790
301.001	77800
300.986	77810
300.96	77820
300.873	77830
300.731	77840
301.025	77850
301.63	77860
301.928	77870
301.227	77880
300.726	77890
300.674	77900
300.913	77910
300.946	77920
300.989	77930
301.038	77940
301.063	77950
301.068	77960
301.111	77970
301.154	77980
301.178	77990
301.185	78000
301.149	78010
301.161	78020
301.099	78030
301.089	78040
301.071	78050
301.022	78060
301.006	78070
300.995	78080
300.98	78090
300.949	78100
300.97	78110
300.978	78120
300.979	78130
301.01	78140
300.976	78150
301.004	78160
300.976	78170
301.002	78180
300.991	78190
300.957	78200
300.984	78210
300.971	78220
300.987	78230
300.976	78240
300.975	78250
300.991	78260
300.987	78270
300.972	78280
300.99	78290
300.999	78300
300.965	78310
300.984	78320
300.996	78330
300.977	78340
300.961	78350
300.967	78360
300.983	78370
300.996	78380
300.99	78390
300.973	78400
301.007	78410
300.971	78420
300.977	78430
300.948	78440
300.998	78450
300.965	78460
301.016	78470
301.012	78480
301.014	78490
300.987	78500
300.987	78510
300.967	78520
300.984	78530
301.001	78540
301.003	78550
301.004	78560
301.037	78570
301.044	78580
301.071	78590
301.087	78600
301.145	78610
301.097	78620
301.115	78630
301.099	78640
301.028	78650
301.021	78660
301.022	78670
300.978	78680
300.993	78690
300.998	78700
300.958	78710
300.758	78720
300.894	78730
301.491	78740
301.937	78750
301.439	78760
300.777	78770
300.694	78780
300.916	78790
301.012	78800
301.028	78810
301.014	78820
301.038	78830
301.078	78840
301.135	78850
301.18	78860
301.174	78870
301.178	78880
301.173	78890
301.159	78900
301.156	78910
301.121	78920
301.099	78930
301.044	78940
301.024	78950
301.015	78960
301.014	78970
300.957	78980
300.966	78990
300.989	79000
301.005	79010
300.974	79020
300.981	79030
300.994	79040
300.963	79050
300.984	79060
300.979	79070
300.977	79080
300.993	79090
300.946	79100
300.978	79110
300.99	79120
300.984	79130
300.987	79140
300.99	79150
300.973	79160
300.989	79170
300.976	79180
301.017	79190
300.985	79200
300.998	79210
301.04	79220
300.991	79230
301.024	79240
301.01	79250
301.012	79260
300.987	79270
301.007	79280
300.974	79290
300.975	79300
301.018	79310
301.0	79320
300.963	79330
300.988	79340
301.008	79350
300.992	79360
300.988	79370
301.009	79380
300.992	79390
301.005	79400
300.982	79410
301.017	79420
300.986	79430
301.001	79440
301.032	79450
301.05	79460
301.044	79470
301.091	79480
301.105	79490
301.154	79500
301.135	79510
301.11	79520
301.049	79530
301.077	79540
301.027	79550
301.0	79560
300.997	79570
301.003	79580
300.987	79590
300.84	79600
300.831	79610
301.333	79620
301.955	79630
301.604	79640
300.882	79650
300.665	79660
300.838	79670
300.999	79680
301.008	79690
301.017	79700
301.064	79710
301.093	79720
301.111	79730
301.151	79740
301.177	79750
301.175	79760
301.15	79770
301.15	79780
301.15	79790
301.139	79800
301.094	79810
301.091	79820
301.037	79830
300.992	79840
300.994	79850
301.019	79860
300.997	79870
300.986	79880
301.004	79890
300.998	79900
300.974	79910
301.002	79920
301.006	79930
301.008	79940
301.004	79950
301.022	79960
301.018	79970
300.968	79980
301.006	79990
300.996	80000
300.992	80010
300.989	80020
300.998	80030
301.002	80040
300.989	80050
300.979	80060
300.999	80070
300.98	80080
301.041	80090
300.991	80100
301.002	80110
301.009	80120
300.984	80130
301.012	80140
301.023	80150
301.025	80160
301.025	80170
300.999	80180
301.013	80190
301.031	80200
301.005	80210
301.006	80220
300.991	80230
300.986	80240
300.982	80250
301.021	80260
301.028	80270
300.998	80280
301.018	80290
301.017	80300
301.0	80310
301.032	80320
301.031	80330
301.032	80340
301.076	80350
301.096	80360
301.151	80370
301.129	80380
301.112	80390
301.149	80400
301.108	80410
301.044	80420
301.032	80430
301.017	80440
301.007	80450
301.023	80460
301.017	80470
300.903	80480
300.78	80490
301.173	80500
301.864	80510
301.779	80520
301.071	80530
300.678	80540
300.802	80550
300.997	80560
301.017	80570
301.043	80580
301.083	80590
301.105	80600
301.111	80610
301.164	80620
301.187	80630
301.186	80640
301.22	80650
301.163	80660
301.167	80670
301.146	80680
301.109	80690
301.069	80700
301.006	80710
301.055	80720
301.034	80730
301.035	80740
301.018	80750
301.01	80760
300.996	80770
301.027	80780
300.995	80790
301.011	80800
301.014	80810
301.015	80820
300.97	80830
301.012	80840
301.005	80850
300.978	80860
300.974	80870
301.005	80880
300.996	80890
300.985	80900
300.979	80910
300.993	80920
301.034	80930
301.007	80940
301.023	80950
300.992	80960
301.021	80970
301.016	80980
301.01	80990
301.022	81000
301.029	81010
301.029	81020
301.0	81030
300.986	81040
301.011	81050
301.02	81060
301.006	81070
301.009	81080
301.0	81090
301.014	81100
301.001	81110
301.008	81120
301.014	81130
301.018	81140
301.01	81150
301.021	81160
301.032	81170
301.034	81180
301.013	81190
301.021	81200
301.025	81210
301.047	81220
301.095	81230
301.126	81240
301.141	81250
301.167	81260
301.161	81270
301.14	81280
301.137	81290
301.08	81300
301.044	81310
301.026	81320
301.045	81330
301.024	81340
301.023	81350
300.918	81360
300.812	81370
301.065	81380
301.715	81390
301.949	81400
301.246	81410
300.731	81420
300.721	81430
300.954	81440
300.974	81450
301.037	81460
301.073	81470
301.074	81480
301.12	81490
301.151	81500
301.18	81510
301.235	81520
301.24	81530
301.181	81540
301.14	81550
301.149	81560
301.108	81570
301.121	81580
301.067	81590
301.078	81600
301.031	81610
300.995	81620
301.032	81630
301.0	81640
301.03	81650
301.031	81660
301.005	81670
301.001	81680
301.017	81690
301.011	81700
301.023	81710
301.031	81720
301.054	81730
300.988	81740
301.023	81750
301.012	81760
301.016	81770
301.026	81780
301.017	81790
301.023	81800
301.007	81810
301.028	81820
301.018	81830
301.019	81840
301.041	81850
301.037	81860
301.018	81870
301.018	81880
301.033	81890
301.015	81900
301.007	81910
300.994	81920
301.038	81930
301.016	81940
301.047	81950
300.999	81960
301.003	81970
301.014	81980
301.035	81990
301.011	82000
301.023	82010
301.026	82020
301.009	82030
300.994	82040
300.986	82050
301.036	82060
301.014	82070
301.043	82080
301.037	82090
301.038	82100
301.051	82110
301.104	82120
301.135	82130
301.144	82140
301.178	82150
301.159	82160
301.096	82170
301.102	82180
301.069	82190
301.05	82200
301.003	82210
301.032	82220
301.028	82230
300.981	82240
300.772	82250
300.951	82260
301.561	82270
301.982	82280
301.437	82290
300.83	82300
300.694	82310
300.928	82320
301.045	82330
301.033	82340
301.086	82350
301.081	82360
301.115	82370
301.146	82380
301.188	82390
301.192	82400
301.211	82410
301.227	82420
301.212	82430
301.173	82440
301.151	82450
301.1	82460
301.071	82470
301.026	82480
301.008	82490
301.011	82500
301.026	82510
301.021	82520
301.014	82530
301.01	82540
301.023	82550
301.036	82560
301.012	82570
301.031	82580
301.036	82590
301.023	82600
301.032	82610
300.988	82620
301.027	82630
301.029	82640
301.012	82650
301.011	82660
301.012	82670
301.028	82680
301.035	82690
301.053	82700
301.036	82710
301.013	82720
301.025	82730
300.991	82740
301.033	82750
301.007	82760
300.983	82770
301.017	82780
301.026	82790
301.023	82800
301.021	82810
300.999	82820
301.004	82830
301.015	82840
301.023	82850
301.006	82860
301.002	82870
301.041	82880
300.998	82890
301.018	82900
301.015	82910
301.034	82920
301.018	82930
301.014	82940
301.009	82950
301.005	82960
301.042	82970
301.059	82980
301.045	82990
301.096	83000
301.115	83010
301.161	83020
301.212	83030
301.178	83040
301.127	83050
301.064	83060
301.045	83070
301.052	83080
301.045	83090
301.041	83100
301.037	83110
301.014	83120
300.816	83130
300.86	83140
301.357	83150
301.958	83160
301.622	83170
300.893	83180
300.687	83190
300.882	83200
300.974	83210
301.056	83220
301.049	83230
301.068	83240
301.074	83250
301.146	83260
301.155	83270
301.224	83280
301.216	83290
301.201	83300
301.181	83310
301.165	83320
301.13	83330
301.125	83340
301.088	83350
301.014	83360
301.035	83370
301.03	83380
301.008	83390
301.013	83400
301.039	83410
301.029	83420
301.033	83430
301.002	83440
301.016	83450
301.01	83460
301.031	83470
300.995	83480
301.012	83490
301.016	83500
301.009	83510
301.021	83520
301.028	83530
301.028	83540
301.013	83550
301.017	83560
301.039	83570
301.002	83580
301.013	83590
301.01	83600
301.029	83610
301.006	83620
301.003	83630
300.993	83640
301.031	83650
301.023	83660
301.049	83670
301.01	83680
301.005	83690
301.0	83700
301.031	83710
300.997	83720
301.029	83730
301.038	83740
301.019	83750
301.013	83760
301.008	83770
300.999	83780
301.001	83790
301.037	83800
301.0	83810
301.037	83820
301.023	83830
301.017	83840
301.0	83850
301.045	83860
301.031	83870
301.053	83880
301.085	83890
301.17	83900
301.174	83910
301.159	83920
301.112	83930
301.107	83940
301.041	83950
301.034	83960
301.024	83970
301.019	83980
301.005	83990
301.007	84000
300.897	84010
300.816	84020
301.245	84030
301.921	84040
301.764	84050
301.048	84060
300.644	84070
300.802	84080
300.961	84090
301.033	84100
301.023	84110
301.085	84120
301.084	84130
301.104	84140
301.157	84150
301.187	84160
301.221	84170
301.214	84180
301.192	84190
301.161	84200
301.139	84210
301.122	84220
301.063	84230
301.06	84240
301.055	84250
301.017	84260
301.016	84270
301.031	84280
301.015	84290
301.025	84300
301.009	84310
300.998	84320
301.03	84330
301.018	84340
301.009	84350
300.987	84360
301.032	84370
300.967	84380
301.01	84390
301.019	84400
301.03	84410
301.005	84420
301.016	84430
301.026	84440
300.982	84450
301.022	84460
301.001	84470
301.01	84480
300.989	84490
301.018	84500
301.006	84510
301.012	84520
301.012	84530
301.04	84540
300.971	84550
301.011	84560
300.982	84570
301.011	84580
301.038	84590
301.005	84600
301.035	84610
301.023	84620
301.009	84630
301.003	84640
300.993	84650
300.998	84660
301.007	84670
301.001	84680
301.003	84690
300.983	84700
301.006	84710
301.018	84720
301.058	84730
301.039	84740
301.028	84750
301.073	84760
301.113	84770
301.12	84780
301.157	84790
301.153	84800
301.156	84810
301.08	84820
301.07	84830
301.038	84840
301.031	84850
301.004	84860
301.017	84870
300.997	84880
300.926	84890
300.786	84900
301.085	84910
301.748	84920
301.915	84930
301.213	84940
300.716	84950
300.755	84960
300.983	84970
301.022	84980
301.025	84990
301.028	85000
301.09	85010
301.107	85020
301.122	85030
301.185	85040
301.206	85050
301.175	85060
301.211	85070
301.151	85080
301.148	85090
301.088	85100
301.081	85110
301.026	85120
301.046	85130
301.023	85140
300.99	85150
300.983	85160
300.979	85170
300.996	85180
300.975	85190
300.989	85200
301.037	85210
300.985	85220
301.003	85230
301.011	85240
300.975	85250
301.013	85260
301.024	85270
300.982	85280
301.022	85290
301.01	85300
300.959	85310
301.022	85320
300.998	85330
300.992	85340
300.972	85350
300.964	85360
300.99	85370
300.986	85380
300.974	85390
301.013	85400
300.961	85410
300.996	85420
301.016	85430
300.98	85440
301.005	85450
300.998	85460
300.998	85470
300.978	85480
300.999	85490
300.98	85500
301.008	85510
300.996	85520
301.0	85530
300.997	85540
300.958	85550
300.985	85560
301.0	85570
300.989	85580
300.983	85590
301.001	85600
301.004	85610
301.017	85620
301.018	85630
301.031	85640
301.095	85650
301.079	85660
301.153	85670
301.129	85680
301.11	85690
301.107	85700
301.057	85710
301.028	85720
301.027	85730
301.007	85740
300.968	85750
301.009	85760
300.926	85770
300.786	85780
300.954	85790
301.601	85800
301.957	85810
301.346	85820
300.758	85830
300.707	85840
300.904	85850
300.994	85860
301.025	85870
301.037	85880
301.07	85890
301.098	85900
301.114	85910
301.151	85920
301.21	85930
301.193	85940
301.187	85950
301.147	85960
301.14	85970
301.101	85980
301.08	85990
301.022	86000
301.017	86010
301.044	86020
301.0	86030
300.975	86040
300.985	86050
301.019	86060
300.969	86070
300.996	86080
300.975	86090
300.993	86100
300.986	86110
300.973	86120
301.002	86130
301.019	86140
300.996	86150
301.0	86160
300.991	86170
300.97	86180
301.004	86190
300.97	86200
301.004	86210
300.983	86220
301.0	86230
300.986	86240
301.022	86250
300.983	86260
300.969	86270
300.977	86280
300.998	86290
300.973	86300
300.996	86310
300.992	86320
300.963	86330
300.969	86340
300.974	86350
301.009	86360
300.98	86370
300.983	86380
300.998	86390
301.011	86400
301.027	86410
300.969	86420
300.958	86430
301.008	86440
300.974	86450
300.945	86460
300.965	86470
300.976	86480
301.011	86490
300.983	86500
300.977	86510
301.028	86520
301.066	86530
301.089	86540
301.121	86550
301.133	86560
301.127	86570
301.085	86580
301.026	86590
301.033	86600
301.008	86610
301.025	86620
301.001	86630
300.982	86640
300.929	86650
300.811	86660
300.865	86670
301.407	86680
301.928	86690
301.5	86700
300.884	86710
300.7	86720
300.851	86730
300.979	86740
301.016	86750
301.037	86760
301.052	86770
301.05	86780
301.107	86790
301.148	86800
301.163	86810
301.201	86820
301.179	86830
301.142	86840
301.134	86850
301.091	86860
301.067	86870
301.034	86880
300.991	86890
300.995	86900
300.99	86910
300.981	86920
300.981	86930
301.009	86940
300.966	86950
300.995	86960
300.965	86970
300.984	86980
300.992	86990
300.98	87000
300.989	87010
300.974	87020
300.995	87030
300.958	87040
301.007	87050
300.991	87060
300.979	87070
300.989	87080
300.955	87090
300.954	87100
300.974	87110
300.962	87120
300.997	87130
300.972	87140
300.976	87150
300.979	87160
300.992	87170
300.955	87180
300.992	87190
301.007	87200
300.981	87210
