300.543	0
300.499	10
300.505	20
300.541	30
300.539	40
300.564	50
300.607	60
300.681	70
300.665	80
300.624	90
300.617	100
300.6	110
300.554	120
300.505	130
300.524	140
300.505	150
300.472	160
300.437	170
300.26	180
300.411	190
301.102	200
301.534	210
300.787	220
300.206	230
300.201	240
300.491	250
300.538	260
300.55	270
300.586	280
300.568	290
300.656	300
300.669	310
300.67	320
300.697	330
300.678	340
300.691	350
300.644	360
300.627	370
300.57	380
300.524	390
300.51	400
300.527	410
300.527	420
300.516	430
300.531	440
300.512	450
300.519	460
300.494	470
300.539	480
300.494	490
300.511	500
300.496	510
300.498	520
300.502	530
300.491	540
300.505	550
300.505	560
300.531	570
300.49	580
300.486	590
300.493	600
300.514	610
300.529	620
300.494	630
300.494	640
300.468	650
300.55	660
300.503	670
300.517	680
300.538	690
300.493	700
300.516	710
300.51	720
300.525	730
300.519	740
300.505	750
300.496	760
300.457	770
300.486	780
300.516	790
300.518	800
300.515	810
300.556	820
300.503	830
300.561	840
300.455	850
300.47	860
300.536	870
300.554	880
300.579	890
300.625	900
300.654	910
300.665	920
300.652	930
300.604	940
300.564	950
300.553	960
300.555	970
300.507	980
300.527	990
300.512	1000
300.356	1010
300.32	1020
300.898	1030
301.517	1040
301.119	1050
300.367	1060
300.166	1070
300.422	1080
300.491	1090
300.569	1100
300.583	1110
300.574	1120
300.558	1130
300.656	1140
300.662	1150
300.713	1160
300.713	1170
300.686	1180
300.7	1190
300.642	1200
300.604	1210
300.536	1220
300.543	1230
300.496	1240
300.5	1250
300.534	1260
300.538	1270
300.506	1280
300.516	1290
300.531	1300
300.54	1310
300.516	1320
300.506	1330
300.481	1340
300.515	1350
300.525	1360
300.511	1370
300.529	1380
300.546	1390
300.492	1400
300.51	1410
300.541	1420
300.531	1430
300.528	1440
300.491	1450
300.527	1460
300.508	1470
300.512	1480
300.517	1490
300.521	1500
300.521	1510
300.532	1520
300.502	1530
300.524	1540
300.507	1550
300.52	1560
300.532	1570
300.518	1580
300.513	1590
300.536	1600
300.552	1610
300.518	1620
300.493	1630
300.536	1640
300.489	1650
300.554	1660
300.522	1670
300.511	1680
300.514	1690
300.537	1700
300.587	1710
300.588	1720
300.626	1730
300.741	1740
300.684	1750
300.656	1760
300.656	1770
300.596	1780
300.516	1790
300.546	1800
300.487	1810
300.541	1820
300.496	1830
300.411	1840
300.236	1850
300.636	1860
301.398	1870
301.384	1880
300.548	1890
300.156	1900
300.361	1910
300.506	1920
300.554	1930
300.598	1940
300.604	1950
300.533	1960
300.686	1970
300.699	1980
300.71	1990
300.723	2000
300.718	2010
300.689	2020
300.666	2030
300.636	2040
300.605	2050
300.564	2060
300.572	2070
300.527	2080
300.542	2090
300.534	2100
300.498	2110
300.567	2120
300.508	2130
300.51	2140
300.544	2150
300.52	2160
300.514	2170
300.533	2180
300.501	2190
300.551	2200
300.519	2210
300.527	2220
300.535	2230
300.53	2240
300.49	2250
300.512	2260
300.48	2270
300.484	2280
300.529	2290
300.522	2300
300.518	2310
300.504	2320
300.488	2330
300.534	2340
300.514	2350
300.522	2360
300.479	2370
300.538	2380
300.492	2390
300.511	2400
300.531	2410
300.534	2420
300.511	2430
300.521	2440
300.55	2450
300.507	2460
300.539	2470
300.537	2480
300.531	2490
300.53	2500
300.538	2510
300.575	2520
300.548	2530
300.573	2540
300.568	2550
300.635	2560
300.623	2570
300.693	2580
300.648	2590
300.638	2600
300.629	2610
300.565	2620
300.528	2630
300.561	2640
300.547	2650
300.513	2660
300.474	2670
300.291	2680
300.455	2690
301.119	2700
301.545	2710
300.8	2720
300.19	2730
300.252	2740
300.455	2750
300.575	2760
300.58	2770
300.602	2780
300.592	2790
300.653	2800
300.711	2810
300.713	2820
300.684	2830
300.758	2840
300.734	2850
300.684	2860
300.651	2870
300.612	2880
300.572	2890
300.531	2900
300.54	2910
300.497	2920
300.501	2930
300.51	2940
300.526	2950
300.494	2960
300.525	2970
300.52	2980
300.531	2990
300.529	3000
300.546	3010
300.536	3020
300.536	3030
300.565	3040
300.513	3050
300.548	3060
300.523	3070
300.556	3080
300.547	3090
300.488	3100
300.515	3110
300.541	3120
300.515	3130
300.508	3140
300.524	3150
300.532	3160
300.518	3170
300.541	3180
300.519	3190
300.516	3200
300.505	3210
300.527	3220
300.477	3230
300.52	3240
300.501	3250
300.544	3260
300.535	3270
300.518	3280
300.5	3290
300.528	3300
300.531	3310
300.519	3320
300.528	3330
300.566	3340
300.53	3350
300.514	3360
300.539	3370
300.55	3380
300.636	3390
300.648	3400
300.658	3410
300.664	3420
300.668	3430
300.623	3440
300.583	3450
300.536	3460
300.503	3470
300.531	3480
300.54	3490
300.49	3500
300.353	3510
300.351	3520
300.876	3530
301.544	3540
301.125	3550
300.349	3560
300.191	3570
300.452	3580
300.513	3590
300.54	3600
300.552	3610
300.592	3620
300.61	3630
300.662	3640
300.654	3650
300.695	3660
300.764	3670
300.69	3680
300.679	3690
300.647	3700
300.592	3710
300.583	3720
300.547	3730
300.529	3740
300.53	3750
300.519	3760
300.525	3770
300.517	3780
300.494	3790
300.533	3800
300.513	3810
300.551	3820
300.525	3830
300.522	3840
300.508	3850
300.51	3860
300.522	3870
300.518	3880
300.555	3890
300.521	3900
300.502	3910
300.54	3920
300.501	3930
300.494	3940
300.512	3950
300.535	3960
300.513	3970
300.516	3980
300.51	3990
300.517	4000
300.475	4010
300.523	4020
300.531	4030
300.511	4040
300.508	4050
300.551	4060
300.495	4070
300.486	4080
300.503	4090
300.521	4100
300.516	4110
300.539	4120
300.515	4130
300.514	4140
300.482	4150
300.521	4160
300.499	4170
300.528	4180
300.488	4190
300.551	4200
300.576	4210
300.582	4220
300.611	4230
300.611	4240
300.647	4250
300.684	4260
300.634	4270
300.605	4280
300.554	4290
300.565	4300
300.523	4310
300.48	4320
300.499	4330
300.415	4340
300.268	4350
300.654	4360
301.368	4370
301.357	4380
300.535	4390
300.151	4400
300.336	4410
300.457	4420
300.549	4430
300.508	4440
300.545	4450
300.617	4460
300.618	4470
300.681	4480
300.697	4490
300.719	4500
300.729	4510
300.662	4520
300.676	4530
300.626	4540
300.558	4550
300.552	4560
300.52	4570
300.514	4580
300.52	4590
300.511	4600
300.521	4610
300.529	4620
300.509	4630
300.488	4640
300.481	4650
300.508	4660
300.509	4670
300.508	4680
300.512	4690
300.496	4700
300.474	4710
300.457	4720
300.468	4730
300.514	4740
300.514	4750
300.489	4760
300.545	4770
300.48	4780
300.464	4790
300.489	4800
300.473	4810
300.522	4820
300.459	4830
300.515	4840
300.495	4850
300.511	4860
300.505	4870
300.487	4880
300.507	4890
300.496	4900
300.513	4910
300.493	4920
300.526	4930
300.525	4940
300.465	4950
300.493	4960
300.511	4970
300.52	4980
300.519	4990
300.497	5000
300.517	5010
300.467	5020
300.496	5030
300.552	5040
300.574	5050
300.591	5060
300.613	5070
300.679	5080
300.675	5090
300.612	5100
300.609	5110
300.579	5120
300.534	5130
300.512	5140
300.505	5150
300.491	5160
300.453	5170
300.264	5180
300.431	5190
301.087	5200
301.563	5210
300.805	5220
300.189	5230
300.218	5240
300.433	5250
300.523	5260
300.547	5270
300.587	5280
300.564	5290
300.586	5300
300.656	5310
300.679	5320
300.692	5330
300.7	5340
300.672	5350
300.643	5360
300.577	5370
300.572	5380
300.518	5390
300.539	5400
300.49	5410
300.497	5420
300.494	5430
300.473	5440
300.476	5450
300.538	5460
300.496	5470
300.483	5480
300.509	5490
300.531	5500
300.493	5510
300.489	5520
300.513	5530
300.514	5540
300.499	5550
300.474	5560
300.535	5570
300.463	5580
300.527	5590
300.488	5600
300.501	5610
300.5	5620
300.513	5630
300.469	5640
300.518	5650
300.485	5660
300.524	5670
300.49	5680
300.478	5690
300.526	5700
300.498	5710
300.486	5720
300.493	5730
300.474	5740
300.482	5750
300.528	5760
300.484	5770
300.504	5780
300.497	5790
300.482	5800
300.485	5810
300.479	5820
300.477	5830
300.506	5840
300.48	5850
300.498	5860
300.552	5870
300.516	5880
300.576	5890
300.624	5900
300.616	5910
300.658	5920
300.63	5930
300.615	5940
300.544	5950
300.522	5960
300.524	5970
300.513	5980
300.509	5990
300.505	6000
300.329	6010
300.283	6020
300.797	6030
301.505	6040
301.11	6050
300.279	6060
300.188	6070
300.433	6080
300.516	6090
300.531	6100
300.545	6110
300.566	6120
300.61	6130
300.584	6140
300.642	6150
300.706	6160
300.647	6170
300.689	6180
300.633	6190
300.635	6200
300.6	6210
300.568	6220
300.523	6230
300.524	6240
300.498	6250
300.504	6260
300.501	6270
300.499	6280
300.495	6290
300.456	6300
300.496	6310
300.457	6320
300.51	6330
300.467	6340
300.482	6350
300.48	6360
300.487	6370
300.487	6380
300.497	6390
300.47	6400
300.496	6410
300.447	6420
300.486	6430
300.469	6440
300.46	6450
300.516	6460
300.514	6470
300.482	6480
300.489	6490
300.452	6500
300.503	6510
300.465	6520
300.507	6530
300.499	6540
300.494	6550
300.485	6560
300.47	6570
300.486	6580
300.49	6590
300.461	6600
300.501	6610
300.478	6620
300.51	6630
300.482	6640
300.492	6650
300.503	6660
300.453	6670
300.462	6680
300.477	6690
300.498	6700
300.5	6710
300.58	6720
300.585	6730
300.586	6740
300.638	6750
300.622	6760
300.588	6770
300.595	6780
300.552	6790
300.493	6800
300.453	6810
300.472	6820
300.471	6830
300.356	6840
300.244	6850
300.559	6860
301.376	6870
301.335	6880
300.513	6890
300.129	6900
300.301	6910
300.466	6920
300.511	6930
300.537	6940
300.525	6950
300.567	6960
300.624	6970
300.664	6980
300.678	6990
300.708	7000
300.692	7010
300.634	7020
300.637	7030
300.583	7040
300.582	7050
300.509	7060
300.512	7070
300.483	7080
300.484	7090
300.491	7100
300.488	7110
300.509	7120
300.484	7130
300.477	7140
300.461	7150
300.506	7160
300.481	7170
300.489	7180
300.483	7190
300.477	7200
300.503	7210
300.482	7220
300.482	7230
300.487	7240
300.469	7250
300.462	7260
300.514	7270
300.51	7280
300.514	7290
300.501	7300
300.478	7310
300.462	7320
300.477	7330
300.495	7340
300.474	7350
300.479	7360
300.511	7370
300.481	7380
300.469	7390
300.509	7400
300.468	7410
300.443	7420
300.487	7430
300.483	7440
300.465	7450
300.476	7460
300.471	7470
300.49	7480
300.513	7490
300.429	7500
300.453	7510
300.515	7520
300.495	7530
300.527	7540
300.499	7550
300.576	7560
300.607	7570
300.655	7580
300.668	7590
300.632	7600
300.557	7610
300.545	7620
300.49	7630
300.467	7640
300.469	7650
300.504	7660
300.392	7670
300.243	7680
300.408	7690
301.121	7700
301.461	7710
300.799	7720
300.185	7730
300.226	7740
300.443	7750
300.484	7760
300.52	7770
300.547	7780
300.612	7790
300.594	7800
300.678	7810
300.669	7820
300.695	7830
300.713	7840
300.663	7850
300.627	7860
300.6	7870
300.575	7880
300.551	7890
300.507	7900
300.479	7910
300.497	7920
300.507	7930
300.469	7940
300.476	7950
300.476	7960
300.466	7970
300.465	7980
300.483	7990
300.505	8000
300.493	8010
300.472	8020
300.477	8030
300.479	8040
300.494	8050
300.503	8060
300.462	8070
300.483	8080
300.48	8090
300.448	8100
300.492	8110
300.486	8120
300.469	8130
300.473	8140
300.474	8150
300.462	8160
300.493	8170
300.502	8180
300.45	8190
300.448	8200
300.487	8210
300.518	8220
300.457	8230
300.495	8240
300.49	8250
300.516	8260
300.503	8270
300.497	8280
300.459	8290
300.49	8300
300.531	8310
300.503	8320
300.459	8330
300.435	8340
300.464	8350
300.511	8360
300.469	8370
300.518	8380
300.571	8390
300.592	8400
300.662	8410
300.642	8420
300.59	8430
300.598	8440
300.523	8450
300.512	8460
300.47	8470
300.492	8480
300.466	8490
300.491	8500
300.305	8510
300.295	8520
300.846	8530
301.485	8540
301.113	8550
300.316	8560
300.101	8570
300.417	8580
300.469	8590
300.487	8600
300.521	8610
300.577	8620
300.594	8630
300.68	8640
300.647	8650
300.688	8660
300.704	8670
300.647	8680
300.634	8690
300.629	8700
300.602	8710
300.522	8720
300.508	8730
300.503	8740
300.508	8750
300.484	8760
300.496	8770
300.502	8780
300.459	8790
300.501	8800
300.504	8810
300.455	8820
300.515	8830
300.454	8840
300.496	8850
300.489	8860
300.451	8870
300.489	8880
300.466	8890
300.452	8900
300.466	8910
300.489	8920
300.477	8930
300.508	8940
300.508	8950
300.487	8960
300.461	8970
300.487	8980
300.47	8990
300.464	9000
300.524	9010
300.466	9020
300.526	9030
300.472	9040
300.496	9050
300.489	9060
300.471	9070
300.476	9080
300.471	9090
300.445	9100
300.529	9110
300.502	9120
300.49	9130
300.481	9140
300.507	9150
300.479	9160
300.483	9170
300.475	9180
300.525	9190
300.524	9200
300.558	9210
300.569	9220
300.582	9230
300.638	9240
300.665	9250
300.614	9260
300.575	9270
300.565	9280
300.555	9290
300.516	9300
300.47	9310
300.478	9320
300.505	9330
300.405	9340
300.267	9350
300.624	9360
301.348	9370
301.357	9380
300.536	9390
300.157	9400
300.33	9410
300.504	9420
300.523	9430
300.567	9440
300.57	9450
300.559	9460
300.624	9470
300.676	9480
300.696	9490
300.676	9500
300.703	9510
300.681	9520
300.625	9530
300.58	9540
300.557	9550
300.511	9560
300.501	9570
300.524	9580
300.489	9590
300.496	9600
300.484	9610
300.524	9620
300.481	9630
300.479	9640
300.487	9650
300.503	9660
300.489	9670
300.509	9680
300.517	9690
300.516	9700
300.493	9710
300.494	9720
300.486	9730
300.498	9740
300.512	9750
300.496	9760
300.505	9770
300.471	9780
300.486	9790
300.533	9800
300.503	9810
300.507	9820
300.487	9830
300.486	9840
300.481	9850
300.494	9860
300.502	9870
300.477	9880
300.49	9890
300.475	9900
300.46	9910
300.49	9920
300.489	9930
300.517	9940
300.492	9950
300.446	9960
300.494	9970
300.478	9980
300.502	9990
300.447	10000
300.476	10010
300.481	10020
300.521	10030
300.524	10040
300.586	10050
300.611	10060
300.616	10070
300.654	10080
300.65	10090
300.658	10100
300.596	10110
300.546	10120
300.525	10130
300.501	10140
300.498	10150
300.497	10160
300.471	10170
300.311	10180
300.424	10190
301.127	10200
301.537	10210
300.817	10220
300.205	10230
300.241	10240
300.462	10250
300.503	10260
300.515	10270
300.549	10280
300.59	10290
300.612	10300
300.668	10310
300.683	10320
300.74	10330
300.674	10340
300.689	10350
300.662	10360
300.64	10370
300.595	10380
300.532	10390
300.553	10400
300.492	10410
300.515	10420
300.508	10430
300.532	10440
300.46	10450
300.534	10460
300.475	10470
300.515	10480
300.525	10490
300.512	10500
300.5	10510
300.544	10520
300.494	10530
300.476	10540
300.488	10550
300.513	10560
300.531	10570
300.514	10580
300.548	10590
300.505	10600
300.545	10610
300.469	10620
300.484	10630
300.475	10640
300.509	10650
300.495	10660
300.495	10670
300.519	10680
300.506	10690
300.513	10700
300.495	10710
300.487	10720
300.504	10730
300.504	10740
300.514	10750
300.496	10760
300.468	10770
300.506	10780
300.486	10790
300.48	10800
300.526	10810
300.525	10820
300.476	10830
300.491	10840
300.532	10850
300.503	10860
300.513	10870
300.545	10880
300.592	10890
300.626	10900
300.652	10910
300.682	10920
300.675	10930
300.572	10940
300.577	10950
300.538	10960
300.52	10970
300.532	10980
300.462	10990
300.494	11000
300.343	11010
300.315	11020
300.862	11030
301.524	11040
301.114	11050
300.335	11060
300.196	11070
300.408	11080
300.518	11090
300.568	11100
300.56	11110
300.614	11120
300.628	11130
300.669	11140
300.689	11150
300.718	11160
300.728	11170
300.716	11180
300.692	11190
300.645	11200
300.603	11210
300.569	11220
300.556	11230
300.558	11240
300.526	11250
300.516	11260
300.503	11270
300.529	11280
300.517	11290
300.483	11300
300.522	11310
300.549	11320
300.538	11330
300.516	11340
300.502	11350
300.499	11360
300.49	11370
300.495	11380
300.515	11390
300.515	11400
300.491	11410
300.543	11420
300.515	11430
300.505	11440
300.513	11450
300.534	11460
300.513	11470
300.536	11480
300.52	11490
300.541	11500
300.518	11510
300.511	11520
300.504	11530
300.503	11540
300.533	11550
300.515	11560
300.52	11570
300.495	11580
300.527	11590
300.54	11600
300.444	11610
300.503	11620
300.515	11630
300.505	11640
300.474	11650
300.506	11660
300.535	11670
300.553	11680
300.556	11690
300.477	11700
300.534	11710
300.576	11720
300.616	11730
300.657	11740
300.661	11750
300.658	11760
300.635	11770
300.558	11780
300.585	11790
300.53	11800
300.531	11810
300.519	11820
300.507	11830
300.428	11840
300.234	11850
300.639	11860
301.411	11870
301.402	11880
300.527	11890
300.166	11900
300.371	11910
300.552	11920
300.566	11930
300.552	11940
300.572	11950
300.6	11960
300.686	11970
300.677	11980
300.72	11990
300.762	12000
300.704	12010
300.72	12020
300.662	12030
300.611	12040
300.578	12050
300.556	12060
300.505	12070
300.54	12080
300.495	12090
300.541	12100
300.554	12110
300.541	12120
300.533	12130
300.56	12140
300.489	12150
300.518	12160
300.52	12170
300.505	12180
300.502	12190
300.527	12200
300.497	12210
300.548	12220
300.518	12230
300.524	12240
300.53	12250
300.531	12260
300.529	12270
300.538	12280
300.516	12290
300.547	12300
300.538	12310
300.524	12320
300.489	12330
300.493	12340
300.542	12350
300.513	12360
300.51	12370
300.518	12380
300.503	12390
300.515	12400
300.52	12410
300.503	12420
300.503	12430
300.518	12440
300.521	12450
300.519	12460
300.494	12470
300.533	12480
300.484	12490
300.509	12500
300.536	12510
300.529	12520
300.524	12530
300.546	12540
300.597	12550
300.643	12560
300.668	12570
300.686	12580
300.68	12590
300.633	12600
300.635	12610
300.609	12620
300.513	12630
300.523	12640
300.547	12650
300.523	12660
300.469	12670
300.308	12680
300.446	12690
301.101	12700
301.579	12710
300.803	12720
300.202	12730
300.234	12740
300.458	12750
300.545	12760
300.54	12770
300.577	12780
300.594	12790
300.594	12800
300.699	12810
300.725	12820
300.72	12830
300.728	12840
300.707	12850
300.694	12860
300.67	12870
300.581	12880
300.61	12890
300.568	12900
300.524	12910
300.499	12920
300.585	12930
300.517	12940
300.521	12950
300.514	12960
300.506	12970
300.517	12980
300.51	12990
300.546	13000
300.521	13010
300.498	13020
300.499	13030
300.537	13040
300.5	13050
300.523	13060
300.534	13070
300.539	13080
300.485	13090
300.524	13100
300.503	13110
300.52	13120
300.491	13130
300.523	13140
300.497	13150
300.524	13160
300.509	13170
300.493	13180
300.538	13190
300.497	13200
300.517	13210
300.507	13220
300.515	13230
300.522	13240
300.501	13250
300.519	13260
300.503	13270
300.514	13280
300.531	13290
300.497	13300
300.516	13310
300.539	13320
300.491	13330
300.6	13340
300.507	13350
300.543	13360
300.524	13370
300.588	13380
300.667	13390
300.643	13400
300.681	13410
300.706	13420
300.679	13430
300.633	13440
300.579	13450
300.552	13460
300.521	13470
300.492	13480
300.491	13490
300.518	13500
300.303	13510
300.35	13520
300.856	13530
301.552	13540
301.081	13550
300.352	13560
300.192	13570
300.427	13580
300.527	13590
300.531	13600
300.573	13610
300.578	13620
300.663	13630
300.667	13640
300.736	13650
300.719	13660
300.713	13670
300.706	13680
300.685	13690
300.681	13700
300.571	13710
300.561	13720
300.562	13730
300.515	13740
300.559	13750
300.496	13760
300.509	13770
300.52	13780
300.496	13790
300.518	13800
300.506	13810
300.503	13820
300.524	13830
300.489	13840
300.483	13850
300.536	13860
300.497	13870
300.516	13880
300.528	13890
300.492	13900
300.506	13910
300.491	13920
300.484	13930
300.464	13940
300.496	13950
300.509	13960
300.492	13970
300.488	13980
300.512	13990
300.505	14000
300.515	14010
300.484	14020
300.464	14030
300.548	14040
300.514	14050
300.548	14060
300.499	14070
300.519	14080
300.506	14090
300.548	14100
300.493	14110
300.516	14120
300.51	14130
300.48	14140
300.544	14150
300.508	14160
300.512	14170
300.506	14180
300.531	14190
300.536	14200
300.564	14210
300.588	14220
300.631	14230
300.656	14240
300.68	14250
300.654	14260
300.581	14270
300.546	14280
300.547	14290
300.543	14300
300.534	14310
300.501	14320
300.519	14330
300.389	14340
300.28	14350
300.636	14360
301.346	14370
301.342	14380
300.53	14390
300.204	14400
300.317	14410
300.475	14420
300.496	14430
300.552	14440
300.591	14450
300.61	14460
300.674	14470
300.677	14480
300.702	14490
300.71	14500
300.71	14510
300.665	14520
300.675	14530
300.587	14540
300.573	14550
300.544	14560
300.529	14570
300.523	14580
300.509	14590
300.476	14600
300.484	14610
300.517	14620
300.512	14630
300.5	14640
300.48	14650
300.533	14660
300.528	14670
300.507	14680
300.499	14690
300.542	14700
300.54	14710
300.481	14720
300.49	14730
300.475	14740
300.489	14750
300.515	14760
300.51	14770
300.48	14780
300.535	14790
300.498	14800
300.498	14810
300.525	14820
300.53	14830
300.475	14840
300.492	14850
300.51	14860
300.499	14870
300.492	14880
300.467	14890
300.515	14900
300.496	14910
300.495	14920
300.496	14930
300.483	14940
300.483	14950
300.492	14960
300.515	14970
300.483	14980
300.502	14990
300.489	15000
300.498	15010
300.491	15020
300.515	15030
300.513	15040
300.582	15050
300.585	15060
300.678	15070
300.68	15080
300.613	15090
300.623	15100
300.596	15110
300.54	15120
300.54	15130
300.515	15140
300.515	15150
300.513	15160
300.445	15170
300.273	15180
300.438	15190
301.139	15200
301.508	15210
300.812	15220
300.173	15230
300.219	15240
300.485	15250
300.522	15260
300.552	15270
300.567	15280
300.573	15290
300.62	15300
300.618	15310
300.669	15320
300.725	15330
300.72	15340
300.691	15350
300.664	15360
300.59	15370
300.579	15380
300.504	15390
300.486	15400
300.478	15410
300.496	15420
300.525	15430
300.494	15440
300.52	15450
300.503	15460
300.482	15470
300.5	15480
300.5	15490
300.492	15500
300.515	15510
300.448	15520
300.486	15530
300.514	15540
300.467	15550
300.518	15560
300.491	15570
300.488	15580
300.504	15590
300.494	15600
300.495	15610
300.525	15620
300.485	15630
300.504	15640
300.501	15650
300.467	15660
300.461	15670
300.477	15680
300.489	15690
300.511	15700
300.497	15710
300.483	15720
300.522	15730
300.495	15740
300.487	15750
300.476	15760
300.467	15770
300.537	15780
300.512	15790
300.509	15800
300.501	15810
300.501	15820
300.513	15830
300.488	15840
300.521	15850
300.485	15860
300.522	15870
300.561	15880
300.606	15890
300.606	15900
300.638	15910
300.612	15920
300.661	15930
300.598	15940
300.549	15950
300.533	15960
300.507	15970
300.502	15980
300.457	15990
300.52	16000
300.328	16010
300.276	16020
300.822	16030
301.517	16040
301.116	16050
300.309	16060
300.164	16070
300.418	16080
300.516	16090
300.525	16100
300.54	16110
300.552	16120
300.609	16130
300.613	16140
300.692	16150
300.719	16160
300.679	16170
300.67	16180
300.666	16190
300.606	16200
300.6	16210
300.517	16220
300.517	16230
300.507	16240
300.465	16250
300.488	16260
300.497	16270
300.493	16280
300.481	16290
300.454	16300
300.488	16310
300.507	16320
300.501	16330
300.502	16340
300.497	16350
300.478	16360
300.489	16370
300.46	16380
300.45	16390
300.453	16400
300.513	16410
300.513	16420
300.492	16430
300.457	16440
300.465	16450
300.432	16460
300.467	16470
300.49	16480
300.464	16490
300.48	16500
300.479	16510
300.459	16520
300.477	16530
300.501	16540
300.475	16550
300.479	16560
300.442	16570
300.452	16580
300.488	16590
300.52	16600
300.462	16610
300.479	16620
300.435	16630
300.449	16640
300.48	16650
300.481	16660
300.481	16670
300.489	16680
300.483	16690
300.516	16700
300.539	16710
300.553	16720
300.606	16730
300.653	16740
300.658	16750
300.634	16760
300.598	16770
300.594	16780
300.535	16790
300.5	16800
300.532	16810
300.49	16820
300.467	16830
300.394	16840
300.225	16850
300.61	16860
301.374	16870
301.361	16880
300.499	16890
300.164	16900
300.294	16910
300.5	16920
300.493	16930
300.554	16940
300.538	16950
300.591	16960
300.586	16970
300.664	16980
300.675	16990
300.652	17000
300.721	17010
300.653	17020
300.598	17030
300.594	17040
300.569	17050
300.474	17060
300.514	17070
300.511	17080
300.49	17090
300.482	17100
300.494	17110
300.482	17120
300.493	17130
300.498	17140
300.461	17150
300.518	17160
300.49	17170
300.526	17180
300.484	17190
300.475	17200
300.496	17210
300.463	17220
300.542	17230
300.463	17240
300.507	17250
300.504	17260
300.465	17270
300.476	17280
300.416	17290
300.483	17300
300.444	17310
300.509	17320
300.504	17330
300.487	17340
300.515	17350
300.464	17360
300.509	17370
300.465	17380
300.467	17390
300.471	17400
300.442	17410
300.472	17420
300.487	17430
300.454	17440
300.506	17450
300.491	17460
300.51	17470
300.475	17480
300.492	17490
300.493	17500
300.491	17510
300.471	17520
300.504	17530
300.492	17540
300.546	17550
300.598	17560
300.647	17570
300.619	17580
300.659	17590
300.61	17600
300.565	17610
300.493	17620
300.505	17630
300.507	17640
300.498	17650
300.473	17660
300.466	17670
300.255	17680
300.385	17690
301.113	17700
301.49	17710
300.704	17720
300.162	17730
300.204	17740
300.454	17750
300.467	17760
300.526	17770
300.521	17780
300.532	17790
300.624	17800
300.663	17810
300.712	17820
300.682	17830
300.665	17840
300.699	17850
300.616	17860
300.563	17870
300.582	17880
300.548	17890
300.498	17900
300.468	17910
300.475	17920
300.454	17930
300.493	17940
300.482	17950
300.499	17960
300.474	17970
300.445	17980
300.459	17990
300.463	18000
300.431	18010
300.474	18020
300.523	18030
300.468	18040
300.492	18050
300.479	18060
300.472	18070
300.516	18080
300.505	18090
300.456	18100
300.486	18110
300.493	18120
300.471	18130
300.488	18140
300.482	18150
300.451	18160
300.455	18170
300.533	18180
300.443	18190
300.516	18200
300.492	18210
300.463	18220
300.518	18230
300.474	18240
300.451	18250
300.495	18260
300.496	18270
300.494	18280
300.505	18290
300.46	18300
300.483	18310
300.496	18320
300.485	18330
300.458	18340
300.458	18350
300.508	18360
300.512	18370
300.54	18380
300.585	18390
300.632	18400
300.651	18410
300.626	18420
300.627	18430
300.519	18440
300.553	18450
300.529	18460
300.487	18470
300.488	18480
300.469	18490
300.522	18500
300.364	18510
300.266	18520
300.831	18530
301.481	18540
301.072	18550
300.32	18560
300.139	18570
300.41	18580
300.479	18590
300.509	18600
300.518	18610
300.581	18620
300.601	18630
300.66	18640
300.641	18650
300.656	18660
300.663	18670
300.692	18680
300.647	18690
300.579	18700
300.548	18710
300.534	18720
300.514	18730
300.502	18740
300.461	18750
300.444	18760
300.496	18770
300.459	18780
300.499	18790
300.486	18800
300.504	18810
300.494	18820
300.475	18830
300.498	18840
300.517	18850
300.462	18860
300.486	18870
300.507	18880
300.497	18890
300.514	18900
300.483	18910
300.485	18920
300.52	18930
300.461	18940
300.494	18950
300.484	18960
300.504	18970
300.511	18980
300.488	18990
300.469	19000
300.497	19010
300.431	19020
300.512	19030
300.505	19040
300.506	19050
300.493	19060
300.521	19070
300.468	19080
300.495	19090
300.469	19100
300.457	19110
300.501	19120
300.498	19130
300.466	19140
300.455	19150
300.48	19160
300.536	19170
300.491	19180
300.484	19190
300.529	19200
300.534	19210
300.594	19220
300.584	19230
300.673	19240
300.652	19250
300.611	19260
300.571	19270
300.56	19280
300.539	19290
300.502	19300
300.486	19310
300.473	19320
300.496	19330
300.408	19340
300.22	19350
300.644	19360
301.32	19370
301.349	19380
300.549	19390
300.106	19400
300.338	19410
300.522	19420
300.519	19430
300.517	19440
300.549	19450
300.654	19460
300.655	19470
300.66	19480
300.697	19490
300.705	19500
300.737	19510
300.656	19520
300.647	19530
300.609	19540
300.534	19550
300.504	19560
300.527	19570
300.488	19580
300.496	19590
300.481	19600
300.484	19610
300.483	19620
300.499	19630
300.531	19640
300.501	19650
300.504	19660
300.508	19670
300.488	19680
300.53	19690
300.489	19700
300.488	19710
300.509	19720
300.504	19730
300.46	19740
300.501	19750
300.517	19760
300.481	19770
300.531	19780
300.475	19790
300.466	19800
300.518	19810
300.498	19820
300.502	19830
300.475	19840
300.47	19850
300.546	19860
300.478	19870
300.528	19880
300.471	19890
300.495	19900
300.456	19910
300.495	19920
300.491	19930
300.463	19940
300.501	19950
300.504	19960
300.498	19970
300.485	19980
300.483	19990
300.501	20000
300.503	20010
300.517	20020
300.56	20030
300.559	20040
300.529	20050
300.608	20060
300.662	20070
300.656	20080
300.609	20090
300.618	20100
300.589	20110
300.567	20120
300.501	20130
300.504	20140
300.536	20150
300.518	20160
300.454	20170
300.278	20180
300.42	20190
301.109	20200
301.515	20210
300.805	20220
300.216	20230
300.242	20240
300.449	20250
300.551	20260
300.538	20270
300.567	20280
300.58	20290
300.636	20300
300.663	20310
300.673	20320
300.685	20330
300.712	20340
300.693	20350
300.67	20360
300.64	20370
300.578	20380
300.555	20390
300.533	20400
300.495	20410
300.517	20420
300.53	20430
300.541	20440
300.526	20450
300.513	20460
300.526	20470
300.505	20480
300.506	20490
300.51	20500
300.509	20510
300.494	20520
300.541	20530
300.495	20540
300.532	20550
300.527	20560
300.511	20570
300.532	20580
300.57	20590
300.506	20600
300.511	20610
300.493	20620
300.487	20630
300.486	20640
300.522	20650
300.551	20660
300.523	20670
300.505	20680
300.533	20690
300.493	20700
300.54	20710
300.497	20720
300.478	20730
300.537	20740
300.508	20750
300.518	20760
300.495	20770
300.504	20780
300.523	20790
300.55	20800
300.503	20810
300.493	20820
300.544	20830
300.536	20840
300.486	20850
300.527	20860
300.548	20870
300.601	20880
300.58	20890
300.665	20900
300.65	20910
300.672	20920
300.679	20930
300.609	20940
300.543	20950
300.531	20960
300.556	20970
300.534	20980
300.494	20990
300.485	21000
300.395	21010
300.31	21020
300.917	21030
301.574	21040
301.126	21050
300.348	21060
300.232	21070
300.426	21080
300.5	21090
300.535	21100
300.551	21110
300.592	21120
300.644	21130
300.711	21140
300.673	21150
300.718	21160
300.706	21170
300.721	21180
300.661	21190
300.657	21200
300.622	21210
300.557	21220
300.569	21230
300.546	21240
300.49	21250
300.518	21260
300.512	21270
300.532	21280
300.528	21290
300.511	21300
300.526	21310
300.569	21320
300.492	21330
300.519	21340
300.541	21350
300.542	21360
300.537	21370
300.517	21380
300.508	21390
300.516	21400
300.493	21410
300.522	21420
300.521	21430
300.507	21440
300.497	21450
300.536	21460
300.49	21470
300.544	21480
300.533	21490
300.506	21500
300.526	21510
300.506	21520
300.559	21530
300.501	21540
300.512	21550
300.479	21560
300.518	21570
300.536	21580
300.522	21590
300.512	21600
300.525	21610
300.534	21620
300.52	21630
300.522	21640
300.496	21650
300.555	21660
300.539	21670
300.519	21680
300.554	21690
300.563	21700
300.547	21710
300.621	21720
300.61	21730
300.692	21740
300.683	21750
300.692	21760
300.612	21770
300.616	21780
300.527	21790
300.527	21800
300.467	21810
300.505	21820
300.515	21830
300.457	21840
300.244	21850
300.639	21860
301.361	21870
301.364	21880
300.581	21890
300.151	21900
300.358	21910
300.517	21920
300.553	21930
300.526	21940
300.536	21950
300.638	21960
300.653	21970
300.716	21980
300.697	21990
300.742	22000
300.732	22010
300.673	22020
300.664	22030
300.644	22040
300.581	22050
300.576	22060
300.549	22070
300.488	22080
300.513	22090
300.531	22100
300.507	22110
300.508	22120
300.499	22130
300.529	22140
300.531	22150
300.56	22160
300.495	22170
300.521	22180
300.525	22190
300.522	22200
300.499	22210
300.541	22220
300.54	22230
300.538	22240
300.506	22250
300.532	22260
300.541	22270
300.483	22280
300.549	22290
300.545	22300
300.516	22310
300.527	22320
300.518	22330
300.514	22340
300.5	22350
300.496	22360
300.506	22370
300.54	22380
300.544	22390
300.502	22400
300.546	22410
300.528	22420
300.527	22430
300.526	22440
300.501	22450
300.541	22460
300.504	22470
300.531	22480
300.55	22490
300.521	22500
300.552	22510
300.576	22520
300.593	22530
300.534	22540
300.58	22550
300.61	22560
300.67	22570
300.712	22580
300.674	22590
300.696	22600
300.586	22610
300.569	22620
300.564	22630
300.551	22640
300.507	22650
300.49	22660
300.486	22670
300.353	22680
300.482	22690
301.112	22700
301.555	22710
300.799	22720
300.211	22730
300.256	22740
300.514	22750
300.514	22760
300.562	22770
300.585	22780
300.606	22790
300.664	22800
300.657	22810
300.715	22820
300.721	22830
300.723	22840
300.692	22850
300.67	22860
300.626	22870
300.62	22880
300.577	22890
300.518	22900
300.548	22910
300.549	22920
300.46	22930
300.517	22940
300.507	22950
300.521	22960
300.485	22970
300.489	22980
300.494	22990
300.51	23000
300.54	23010
300.483	23020
300.527	23030
300.525	23040
300.522	23050
300.549	23060
300.53	23070
300.501	23080
300.508	23090
300.534	23100
300.543	23110
300.536	23120
300.563	23130
300.525	23140
300.53	23150
300.541	23160
300.497	23170
300.509	23180
300.536	23190
300.492	23200
300.522	23210
300.538	23220
300.505	23230
300.5	23240
300.554	23250
300.523	23260
300.537	23270
300.523	23280
300.516	23290
300.521	23300
300.534	23310
300.526	23320
300.506	23330
300.546	23340
300.537	23350
300.537	23360
300.521	23370
300.59	23380
300.577	23390
300.644	23400
300.647	23410
300.667	23420
300.658	23430
300.628	23440
300.555	23450
300.561	23460
300.517	23470
300.517	23480
300.524	23490
300.52	23500
300.367	23510
300.367	23520
300.85	23530
301.539	23540
301.092	23550
300.331	23560
300.137	23570
300.376	23580
300.509	23590
300.567	23600
300.55	23610
300.614	23620
300.632	23630
300.684	23640
300.691	23650
300.72	23660
300.763	23670
300.707	23680
300.649	23690
300.647	23700
300.612	23710
300.582	23720
300.538	23730
300.543	23740
300.552	23750
300.538	23760
300.515	23770
300.505	23780
300.494	23790
300.515	23800
300.508	23810
300.514	23820
300.51	23830
300.507	23840
300.54	23850
300.521	23860
300.539	23870
300.523	23880
300.496	23890
300.5	23900
300.509	23910
300.532	23920
300.513	23930
300.522	23940
300.511	23950
300.505	23960
300.502	23970
300.505	23980
300.55	23990
300.472	24000
300.527	24010
300.526	24020
300.531	24030
300.494	24040
300.488	24050
300.559	24060
300.504	24070
300.508	24080
300.511	24090
300.513	24100
300.541	24110
300.517	24120
300.499	24130
300.564	24140
300.517	24150
300.482	24160
300.544	24170
300.484	24180
300.505	24190
300.552	24200
300.517	24210
300.611	24220
300.641	24230
300.67	24240
300.648	24250
300.627	24260
300.622	24270
300.584	24280
300.53	24290
300.56	24300
300.529	24310
300.528	24320
300.485	24330
300.412	24340
300.231	24350
300.624	24360
301.402	24370
301.404	24380
300.532	24390
300.17	24400
300.352	24410
300.475	24420
300.569	24430
300.574	24440
300.581	24450
300.595	24460
300.634	24470
300.718	24480
300.701	24490
300.702	24500
300.727	24510
300.684	24520
300.623	24530
300.586	24540
300.57	24550
300.555	24560
300.525	24570
300.475	24580
300.542	24590
300.49	24600
300.514	24610
300.514	24620
300.496	24630
300.484	24640
300.507	24650
300.528	24660
300.49	24670
300.52	24680
300.523	24690
300.477	24700
300.484	24710
300.525	24720
300.513	24730
300.511	24740
300.504	24750
300.483	24760
300.478	24770
300.451	24780
300.539	24790
300.473	24800
300.523	24810
300.507	24820
300.529	24830
300.487	24840
300.447	24850
300.529	24860
300.49	24870
300.47	24880
300.505	24890
300.508	24900
300.461	24910
300.485	24920
300.533	24930
300.5	24940
300.5	24950
300.481	24960
300.52	24970
300.503	24980
300.527	24990
300.495	25000
300.55	25010
300.505	25020
300.548	25030
300.564	25040
300.551	25050
300.609	25060
300.599	25070
300.647	25080
300.64	25090
300.604	25100
300.605	25110
300.501	25120
300.509	25130
300.485	25140
300.518	25150
300.493	25160
300.462	25170
300.263	25180
300.451	25190
301.103	25200
301.566	25210
300.8	25220
300.191	25230
300.252	25240
300.455	25250
300.527	25260
300.555	25270
300.529	25280
300.591	25290
300.646	25300
300.664	25310
300.673	25320
300.723	25330
300.695	25340
300.683	25350
300.62	25360
300.615	25370
300.58	25380
300.563	25390
300.513	25400
300.53	25410
300.525	25420
300.521	25430
300.491	25440
300.473	25450
300.515	25460
300.503	25470
300.537	25480
300.501	25490
300.488	25500
300.503	25510
300.465	25520
300.472	25530
300.522	25540
300.53	25550
300.481	25560
300.526	25570
300.455	25580
300.514	25590
300.508	25600
300.537	25610
300.494	25620
300.472	25630
300.485	25640
300.492	25650
300.444	25660
300.463	25670
300.479	25680
300.499	25690
300.51	25700
300.446	25710
300.495	25720
300.488	25730
300.452	25740
300.498	25750
300.501	25760
300.511	25770
300.451	25780
300.494	25790
300.503	25800
300.49	25810
300.495	25820
300.471	25830
300.462	25840
300.505	25850
300.461	25860
300.544	25870
300.56	25880
300.574	25890
300.65	25900
300.638	25910
300.616	25920
300.643	25930
300.608	25940
300.538	25950
300.514	25960
300.51	25970
300.503	25980
300.422	25990
300.505	26000
300.322	26010
300.293	26020
300.835	26030
301.495	26040
301.058	26050
300.305	26060
300.151	26070
300.388	26080
300.464	26090
300.543	26100
300.515	26110
300.586	26120
300.631	26130
300.626	26140
300.633	26150
300.677	26160
300.682	26170
300.696	26180
300.605	26190
300.555	26200
300.589	26210
300.539	26220
300.529	26230
300.531	26240
300.499	26250
300.505	26260
300.485	26270
300.501	26280
300.489	26290
300.466	26300
300.438	26310
300.497	26320
300.477	26330
300.464	26340
300.471	26350
300.505	26360
300.507	26370
300.521	26380
300.469	26390
300.482	26400
300.484	26410
300.495	26420
300.478	26430
300.506	26440
300.488	26450
300.5	26460
300.447	26470
300.502	26480
300.489	26490
300.5	26500
300.444	26510
300.513	26520
300.461	26530
300.474	26540
300.469	26550
300.473	26560
300.492	26570
300.498	26580
300.469	26590
300.485	26600
300.47	26610
300.52	26620
300.49	26630
300.451	26640
300.506	26650
300.509	26660
300.486	26670
300.497	26680
300.487	26690
300.487	26700
300.491	26710
300.545	26720
300.599	26730
300.637	26740
300.658	26750
300.605	26760
300.614	26770
300.523	26780
300.534	26790
300.475	26800
300.514	26810
300.509	26820
300.513	26830
300.405	26840
300.261	26850
300.615	26860
301.366	26870
301.321	26880
300.472	26890
300.134	26900
300.275	26910
300.435	26920
300.479	26930
300.539	26940
300.558	26950
300.593	26960
300.646	26970
300.64	26980
300.697	26990
300.729	27000
300.728	27010
300.642	27020
300.61	27030
300.585	27040
300.568	27050
300.512	27060
300.476	27070
300.501	27080
300.462	27090
300.489	27100
300.439	27110
300.485	27120
300.511	27130
300.454	27140
300.438	27150
300.496	27160
300.457	27170
300.425	27180
300.517	27190
300.512	27200
300.463	27210
300.458	27220
300.501	27230
300.446	27240
300.504	27250
300.483	27260
300.458	27270
300.489	27280
300.496	27290
300.451	27300
300.488	27310
300.466	27320
300.481	27330
300.473	27340
300.42	27350
300.473	27360
300.502	27370
300.502	27380
300.497	27390
300.463	27400
300.506	27410
300.503	27420
300.487	27430
300.452	27440
300.461	27450
300.484	27460
300.434	27470
300.479	27480
300.496	27490
300.468	27500
300.458	27510
300.485	27520
300.471	27530
300.494	27540
300.552	27550
300.577	27560
300.612	27570
300.647	27580
300.648	27590
300.624	27600
300.56	27610
300.533	27620
300.512	27630
300.481	27640
300.466	27650
300.496	27660
300.407	27670
300.216	27680
300.416	27690
301.122	27700
301.508	27710
300.788	27720
300.16	27730
300.234	27740
300.41	27750
300.522	27760
300.513	27770
300.505	27780
300.56	27790
300.582	27800
300.633	27810
300.667	27820
300.723	27830
300.688	27840
300.637	27850
300.655	27860
300.609	27870
300.57	27880
300.544	27890
300.483	27900
300.524	27910
300.503	27920
300.499	27930
300.478	27940
300.47	27950
300.502	27960
300.473	27970
300.483	27980
300.469	27990
300.475	28000
300.478	28010
300.508	28020
300.478	28030
300.471	28040
300.444	28050
300.473	28060
300.501	28070
300.482	28080
300.514	28090
300.476	28100
300.477	28110
300.493	28120
300.494	28130
300.483	28140
300.483	28150
300.486	28160
300.514	28170
300.498	28180
300.479	28190
300.469	28200
300.511	28210
300.463	28220
300.466	28230
300.484	28240
300.477	28250
300.47	28260
300.469	28270
300.473	28280
300.48	28290
300.464	28300
300.504	28310
300.474	28320
300.425	28330
300.476	28340
300.494	28350
300.497	28360
300.489	28370
300.547	28380
300.572	28390
300.616	28400
300.645	28410
300.597	28420
300.619	28430
300.578	28440
300.54	28450
300.518	28460
300.502	28470
300.484	28480
300.477	28490
300.471	28500
300.314	28510
300.274	28520
300.817	28530
301.443	28540
301.082	28550
300.298	28560
300.155	28570
300.36	28580
300.483	28590
300.53	28600
300.544	28610
300.579	28620
300.605	28630
300.612	28640
300.637	28650
300.676	28660
300.695	28670
300.68	28680
300.646	28690
300.585	28700
300.579	28710
300.522	28720
300.499	28730
300.523	28740
300.477	28750
300.466	28760
300.486	28770
300.486	28780
300.486	28790
300.455	28800
300.461	28810
300.491	28820
300.483	28830
300.468	28840
300.518	28850
300.485	28860
300.454	28870
300.491	28880
300.469	28890
300.475	28900
300.487	28910
300.501	28920
300.498	28930
300.458	28940
300.49	28950
300.491	28960
300.509	28970
300.517	28980
300.526	28990
300.459	29000
300.506	29010
300.502	29020
300.466	29030
300.465	29040
300.522	29050
300.522	29060
300.463	29070
300.492	29080
300.522	29090
300.444	29100
300.504	29110
300.518	29120
300.517	29130
300.481	29140
300.448	29150
300.494	29160
300.477	29170
300.52	29180
300.543	29190
300.488	29200
300.543	29210
300.57	29220
300.592	29230
300.648	29240
300.689	29250
300.635	29260
300.633	29270
300.539	29280
300.557	29290
300.507	29300
300.506	29310
300.527	29320
300.429	29330
300.467	29340
300.239	29350
300.586	29360
301.361	29370
301.331	29380
300.536	29390
300.153	29400
300.297	29410
300.476	29420
300.503	29430
300.568	29440
300.552	29450
300.62	29460
300.625	29470
300.706	29480
300.697	29490
300.702	29500
300.694	29510
300.648	29520
300.655	29530
300.59	29540
300.583	29550
300.567	29560
300.479	29570
300.475	29580
300.506	29590
300.492	29600
300.548	29610
300.502	29620
300.469	29630
300.448	29640
300.48	29650
300.461	29660
300.5	29670
300.502	29680
300.508	29690
300.509	29700
300.48	29710
300.465	29720
300.498	29730
300.513	29740
300.498	29750
300.52	29760
300.457	29770
300.487	29780
300.473	29790
300.538	29800
300.522	29810
300.543	29820
300.506	29830
300.515	29840
300.499	29850
300.513	29860
300.485	29870
300.501	29880
300.511	29890
300.541	29900
300.532	29910
300.517	29920
300.528	29930
300.446	29940
300.52	29950
300.508	29960
300.498	29970
300.498	29980
300.499	29990
300.517	30000
300.497	30010
300.524	30020
300.492	30030
300.552	30040
300.535	30050
300.591	30060
300.656	30070
300.66	30080
300.665	30090
300.634	30100
300.598	30110
300.535	30120
300.568	30130
300.507	30140
300.489	30150
300.519	30160
300.489	30170
300.289	30180
300.469	30190
301.14	30200
301.488	30210
300.789	30220
300.235	30230
300.242	30240
300.495	30250
300.504	30260
300.551	30270
300.532	30280
300.594	30290
300.662	30300
300.651	30310
300.738	30320
300.711	30330
300.692	30340
300.698	30350
300.664	30360
300.65	30370
300.606	30380
300.544	30390
300.513	30400
300.511	30410
300.488	30420
300.499	30430
300.48	30440
300.491	30450
300.494	30460
300.516	30470
300.54	30480
300.492	30490
300.523	30500
300.529	30510
300.501	30520
300.514	30530
300.533	30540
300.518	30550
300.516	30560
300.523	30570
300.504	30580
300.498	30590
300.502	30600
300.487	30610
300.517	30620
300.514	30630
300.529	30640
300.538	30650
300.521	30660
300.496	30670
300.511	30680
300.492	30690
300.516	30700
300.517	30710
300.489	30720
300.496	30730
300.503	30740
300.511	30750
300.481	30760
300.511	30770
300.522	30780
300.489	30790
300.471	30800
300.479	30810
300.487	30820
300.51	30830
300.503	30840
300.529	30850
300.512	30860
300.53	30870
300.571	30880
300.59	30890
300.654	30900
300.679	30910
300.653	30920
300.646	30930
300.6	30940
300.55	30950
300.556	30960
300.508	30970
300.506	30980
300.524	30990
300.507	31000
300.351	31010
300.305	31020
300.852	31030
301.498	31040
301.117	31050
300.371	31060
300.183	31070
300.404	31080
300.507	31090
300.585	31100
300.557	31110
300.572	31120
300.628	31130
300.667	31140
300.731	31150
300.74	31160
300.736	31170
300.715	31180
300.701	31190
300.661	31200
300.599	31210
300.601	31220
300.542	31230
300.525	31240
300.499	31250
300.539	31260
300.502	31270
300.505	31280
300.478	31290
300.52	31300
300.551	31310
300.538	31320
300.48	31330
300.517	31340
300.492	31350
300.496	31360
300.506	31370
300.529	31380
300.502	31390
300.487	31400
300.534	31410
300.519	31420
300.483	31430
300.472	31440
300.474	31450
300.547	31460
300.506	31470
300.519	31480
300.496	31490
300.538	31500
300.508	31510
300.495	31520
300.506	31530
300.482	31540
300.504	31550
300.505	31560
300.489	31570
300.504	31580
300.485	31590
300.515	31600
300.491	31610
300.525	31620
300.519	31630
300.527	31640
300.489	31650
300.517	31660
300.487	31670
300.506	31680
300.519	31690
300.554	31700
300.568	31710
300.577	31720
300.64	31730
300.664	31740
300.713	31750
300.705	31760
300.617	31770
300.598	31780
300.523	31790
300.562	31800
300.513	31810
300.53	31820
300.511	31830
300.398	31840
300.26	31850
300.659	31860
301.395	31870
301.387	31880
300.526	31890
300.17	31900
300.349	31910
300.525	31920
300.513	31930
300.542	31940
300.584	31950
300.623	31960
300.685	31970
300.695	31980
300.697	31990
300.718	32000
300.691	32010
300.681	32020
300.648	32030
300.611	32040
300.61	32050
300.565	32060
300.544	32070
300.541	32080
300.529	32090
300.507	32100
300.496	32110
300.566	32120
300.55	32130
300.52	32140
300.504	32150
300.512	32160
300.499	32170
300.536	32180
300.537	32190
300.475	32200
300.5	32210
300.46	32220
300.537	32230
300.538	32240
300.532	32250
300.514	32260
300.514	32270
300.522	32280
300.483	32290
300.535	32300
300.514	32310
300.52	32320
300.5	32330
300.538	32340
300.53	32350
300.501	32360
300.562	32370
300.509	32380
300.499	32390
300.534	32400
300.538	32410
300.505	32420
300.516	32430
300.515	32440
300.509	32450
300.554	32460
300.513	32470
300.523	32480
300.519	32490
300.524	32500
300.522	32510
300.515	32520
300.521	32530
300.553	32540
300.585	32550
300.634	32560
300.7	32570
300.689	32580
300.661	32590
300.657	32600
300.619	32610
300.598	32620
300.543	32630
300.521	32640
300.504	32650
300.483	32660
300.513	32670
300.305	32680
300.464	32690
301.163	32700
301.53	32710
300.777	32720
300.25	32730
300.228	32740
300.448	32750
300.559	32760
300.493	32770
300.598	32780
300.619	32790
300.688	32800
300.682	32810
300.667	32820
300.754	32830
300.73	32840
300.736	32850
300.665	32860
300.662	32870
300.595	32880
300.549	32890
300.532	32900
300.583	32910
300.534	32920
300.545	32930
300.509	32940
300.511	32950
300.54	32960
300.493	32970
300.531	32980
300.528	32990
300.527	33000
300.534	33010
300.509	33020
300.505	33030
300.517	33040
300.519	33050
300.502	33060
300.507	33070
300.54	33080
300.484	33090
300.489	33100
300.491	33110
300.491	33120
300.501	33130
300.473	33140
300.5	33150
300.515	33160
300.517	33170
300.535	33180
300.516	33190
300.497	33200
300.486	33210
300.53	33220
300.532	33230
300.503	33240
300.492	33250
300.503	33260
300.521	33270
300.534	33280
300.48	33290
300.533	33300
300.527	33310
300.524	33320
300.523	33330
300.52	33340
300.497	33350
300.536	33360
300.55	33370
300.575	33380
300.641	33390
300.654	33400
300.682	33410
300.713	33420
300.682	33430
300.626	33440
300.589	33450
300.534	33460
300.543	33470
300.544	33480
300.501	33490
300.509	33500
300.378	33510
300.315	33520
300.888	33530
301.559	33540
301.115	33550
300.367	33560
300.182	33570
300.42	33580
300.527	33590
300.539	33600
300.545	33610
300.618	33620
300.554	33630
300.672	33640
300.689	33650
300.732	33660
300.75	33670
300.721	33680
300.703	33690
300.615	33700
300.639	33710
300.584	33720
300.57	33730
300.509	33740
300.522	33750
300.509	33760
300.517	33770
300.486	33780
300.492	33790
300.501	33800
300.517	33810
300.493	33820
300.536	33830
300.511	33840
300.512	33850
300.513	33860
300.545	33870
300.54	33880
300.507	33890
300.525	33900
300.507	33910
300.543	33920
300.497	33930
300.498	33940
300.526	33950
300.519	33960
300.509	33970
300.512	33980
300.516	33990
300.533	34000
300.473	34010
300.472	34020
300.511	34030
300.515	34040
300.504	34050
300.522	34060
300.482	34070
300.528	34080
300.498	34090
300.537	34100
300.54	34110
300.51	34120
300.51	34130
300.503	34140
300.507	34150
300.527	34160
300.548	34170
300.474	34180
300.45	34190
300.558	34200
300.566	34210
300.609	34220
300.596	34230
300.633	34240
300.667	34250
300.663	34260
300.634	34270
300.588	34280
300.561	34290
300.516	34300
300.48	34310
300.477	34320
300.493	34330
300.417	34340
300.252	34350
300.643	34360
301.372	34370
301.35	34380
300.524	34390
300.129	34400
300.361	34410
300.483	34420
300.511	34430
300.572	34440
300.507	34450
300.638	34460
300.638	34470
300.734	34480
300.685	34490
300.703	34500
300.67	34510
300.68	34520
300.659	34530
300.663	34540
300.599	34550
300.566	34560
300.522	34570
300.53	34580
300.509	34590
300.513	34600
300.529	34610
300.512	34620
300.514	34630
300.492	34640
300.48	34650
300.522	34660
300.498	34670
300.494	34680
300.531	34690
300.484	34700
300.522	34710
300.492	34720
300.461	34730
300.475	34740
300.484	34750
300.518	34760
300.515	34770
300.489	34780
300.527	34790
300.496	34800
300.479	34810
300.531	34820
300.503	34830
300.522	34840
300.473	34850
300.508	34860
300.517	34870
300.51	34880
300.515	34890
300.506	34900
300.513	34910
300.509	34920
300.5	34930
300.539	34940
300.468	34950
300.525	34960
300.54	34970
300.483	34980
300.531	34990
300.487	35000
300.545	35010
300.499	35020
300.543	35030
300.528	35040
300.538	35050
300.558	35060
300.636	35070
300.68	35080
300.644	35090
300.599	35100
300.562	35110
300.567	35120
300.516	35130
300.522	35140
300.474	35150
300.504	35160
300.465	35170
300.228	35180
300.41	35190
301.135	35200
301.515	35210
300.759	35220
300.226	35230
300.216	35240
300.454	35250
300.538	35260
300.509	35270
300.577	35280
300.57	35290
300.671	35300
300.652	35310
300.682	35320
300.665	35330
300.7	35340
300.702	35350
300.668	35360
300.611	35370
300.574	35380
300.547	35390
300.51	35400
300.483	35410
300.478	35420
300.497	35430
300.475	35440
300.467	35450
300.492	35460
300.496	35470
300.471	35480
300.514	35490
300.471	35500
300.518	35510
300.456	35520
300.504	35530
300.496	35540
300.463	35550
300.513	35560
300.478	35570
300.529	35580
300.477	35590
300.498	35600
300.496	35610
300.513	35620
300.493	35630
300.477	35640
300.523	35650
300.504	35660
300.538	35670
300.476	35680
300.507	35690
300.526	35700
300.514	35710
300.505	35720
300.508	35730
300.526	35740
300.477	35750
300.517	35760
300.476	35770
300.454	35780
300.507	35790
300.476	35800
300.487	35810
300.484	35820
300.475	35830
300.515	35840
300.478	35850
300.52	35860
300.521	35870
300.523	35880
300.584	35890
300.619	35900
300.607	35910
300.665	35920
300.595	35930
300.556	35940
300.504	35950
300.535	35960
300.476	35970
300.461	35980
300.475	35990
300.488	36000
300.312	36010
300.3	36020
300.844	36030
301.53	36040
301.062	36050
300.295	36060
300.147	36070
300.374	36080
300.516	36090
300.506	36100
300.524	36110
300.601	36120
300.595	36130
300.653	36140
300.718	36150
300.716	36160
300.721	36170
300.66	36180
300.662	36190
300.614	36200
300.575	36210
300.537	36220
300.493	36230
300.479	36240
300.501	36250
300.492	36260
300.485	36270
300.504	36280
300.487	36290
300.486	36300
300.477	36310
300.536	36320
300.53	36330
300.498	36340
300.492	36350
300.488	36360
300.477	36370
300.471	36380
300.497	36390
300.478	36400
300.469	36410
300.505	36420
300.5	36430
300.444	36440
300.465	36450
300.45	36460
300.473	36470
300.518	36480
300.473	36490
300.482	36500
300.509	36510
300.499	36520
300.473	36530
300.47	36540
300.487	36550
300.495	36560
300.491	36570
300.482	36580
300.499	36590
300.502	36600
300.481	36610
300.501	36620
300.493	36630
300.467	36640
300.441	36650
300.476	36660
300.509	36670
300.497	36680
300.485	36690
300.499	36700
300.491	36710
300.558	36720
300.579	36730
300.594	36740
300.653	36750
300.592	36760
300.601	36770
300.531	36780
300.527	36790
300.508	36800
300.456	36810
300.499	36820
300.491	36830
300.406	36840
300.225	36850
300.604	36860
301.356	36870
301.36	36880
300.506	36890
300.124	36900
300.303	36910
300.469	36920
300.495	36930
300.565	36940
300.524	36950
300.596	36960
300.657	36970
300.658	36980
300.72	36990
300.705	37000
300.745	37010
300.653	37020
300.624	37030
300.552	37040
300.576	37050
300.542	37060
300.492	37070
300.5	37080
300.444	37090
300.456	37100
300.461	37110
300.502	37120
300.502	37130
300.5	37140
300.479	37150
300.504	37160
300.468	37170
300.486	37180
300.453	37190
300.499	37200
300.486	37210
300.452	37220
300.445	37230
300.448	37240
300.518	37250
300.48	37260
300.5	37270
300.443	37280
300.464	37290
300.495	37300
300.485	37310
300.501	37320
300.459	37330
300.479	37340
300.492	37350
300.439	37360
300.503	37370
300.458	37380
300.484	37390
300.459	37400
300.461	37410
300.482	37420
300.454	37430
300.518	37440
300.48	37450
300.504	37460
300.461	37470
300.473	37480
300.497	37490
300.505	37500
300.499	37510
300.45	37520
300.49	37530
300.494	37540
300.53	37550
300.549	37560
300.623	37570
300.641	37580
300.62	37590
300.616	37600
300.572	37610
300.591	37620
300.531	37630
300.489	37640
300.476	37650
300.449	37660
300.466	37670
300.27	37680
300.403	37690
301.098	37700
301.503	37710
300.798	37720
300.17	37730
300.216	37740
300.388	37750
300.482	37760
300.505	37770
300.521	37780
300.608	37790
300.616	37800
300.651	37810
300.65	37820
300.687	37830
300.695	37840
300.678	37850
300.629	37860
300.568	37870
300.544	37880
300.498	37890
300.505	37900
300.518	37910
300.501	37920
300.488	37930
300.5	37940
300.442	37950
300.529	37960
300.531	37970
300.488	37980
300.501	37990
300.468	38000
300.464	38010
300.469	38020
300.472	38030
300.458	38040
300.499	38050
300.466	38060
300.475	38070
300.496	38080
300.462	38090
300.434	38100
300.492	38110
300.436	38120
300.454	38130
300.489	38140
300.489	38150
300.458	38160
300.453	38170
300.491	38180
300.483	38190
300.505	38200
300.467	38210
300.475	38220
300.46	38230
300.502	38240
300.48	38250
300.48	38260
300.502	38270
300.485	38280
300.466	38290
300.488	38300
300.444	38310
300.485	38320
300.464	38330
300.49	38340
300.493	38350
300.517	38360
300.514	38370
300.529	38380
300.557	38390
300.601	38400
300.629	38410
300.603	38420
300.625	38430
300.596	38440
300.553	38450
300.513	38460
300.477	38470
300.484	38480
300.478	38490
300.511	38500
300.314	38510
300.284	38520
300.82	38530
301.546	38540
301.056	38550
300.336	38560
300.163	38570
300.385	38580
300.5	38590
300.505	38600
300.536	38610
300.555	38620
300.591	38630
300.633	38640
300.685	38650
300.701	38660
300.669	38670
300.656	38680
300.633	38690
300.6	38700
300.579	38710
300.558	38720
300.545	38730
300.505	38740
300.486	38750
300.514	38760
300.46	38770
300.459	38780
300.502	38790
300.491	38800
300.5	38810
300.452	38820
300.484	38830
300.448	38840
300.483	38850
300.459	38860
300.483	38870
300.488	38880
300.515	38890
300.477	38900
300.494	38910
300.49	38920
300.449	38930
300.479	38940
300.544	38950
300.469	38960
300.535	38970
300.472	38980
300.498	38990
300.463	39000
300.507	39010
300.487	39020
300.492	39030
300.512	39040
300.512	39050
300.508	39060
300.5	39070
300.494	39080
300.529	39090
300.457	39100
300.465	39110
300.478	39120
300.456	39130
300.437	39140
300.506	39150
300.516	39160
300.469	39170
300.492	39180
300.506	39190
300.508	39200
300.581	39210
300.561	39220
300.584	39230
300.658	39240
300.677	39250
300.608	39260
300.589	39270
300.6	39280
300.528	39290
300.54	39300
300.452	39310
300.481	39320
300.474	39330
300.388	39340
300.21	39350
300.604	39360
301.342	39370
301.335	39380
300.511	39390
300.14	39400
300.319	39410
300.534	39420
300.516	39430
300.5	39440
300.576	39450
300.591	39460
300.638	39470
300.662	39480
300.712	39490
300.685	39500
300.645	39510
300.669	39520
300.624	39530
300.599	39540
300.572	39550
300.527	39560
300.534	39570
300.524	39580
300.528	39590
300.457	39600
300.471	39610
300.514	39620
300.478	39630
300.541	39640
300.545	39650
300.494	39660
300.431	39670
300.485	39680
300.479	39690
300.533	39700
300.525	39710
300.529	39720
300.483	39730
300.526	39740
300.494	39750
300.504	39760
300.512	39770
300.496	39780
300.489	39790
300.528	39800
300.522	39810
300.515	39820
300.5	39830
300.487	39840
300.506	39850
300.515	39860
300.519	39870
300.494	39880
300.502	39890
300.49	39900
300.499	39910
300.477	39920
300.487	39930
300.509	39940
300.477	39950
300.5	39960
300.516	39970
300.52	39980
300.561	39990
300.496	40000
300.486	40010
300.517	40020
300.525	40030
300.511	40040
300.577	40050
300.609	40060
300.62	40070
300.666	40080
300.656	40090
300.616	40100
300.581	40110
300.578	40120
300.539	40130
300.526	40140
300.5	40150
300.487	40160
300.437	40170
300.276	40180
300.437	40190
301.124	40200
301.58	40210
300.787	40220
300.196	40230
300.208	40240
300.479	40250
300.539	40260
300.55	40270
300.571	40280
300.596	40290
300.633	40300
300.652	40310
300.674	40320
300.742	40330
300.714	40340
300.662	40350
300.647	40360
300.621	40370
300.599	40380
300.53	40390
300.515	40400
300.501	40410
300.495	40420
300.512	40430
300.503	40440
300.512	40450
300.485	40460
300.483	40470
300.485	40480
300.488	40490
300.495	40500
300.524	40510
300.482	40520
300.509	40530
300.527	40540
300.554	40550
300.501	40560
300.509	40570
300.515	40580
300.503	40590
300.521	40600
300.517	40610
300.458	40620
300.529	40630
300.548	40640
300.52	40650
300.537	40660
300.484	40670
300.514	40680
300.522	40690
300.528	40700
300.495	40710
300.485	40720
300.526	40730
300.503	40740
300.475	40750
300.498	40760
300.484	40770
300.495	40780
300.467	40790
300.498	40800
300.508	40810
300.514	40820
300.506	40830
300.524	40840
300.506	40850
300.587	40860
300.564	40870
300.552	40880
300.605	40890
300.632	40900
300.651	40910
300.683	40920
300.652	40930
300.614	40940
300.538	40950
300.515	40960
300.533	40970
300.535	40980
300.49	40990
300.509	41000
300.345	41010
300.318	41020
300.853	41030
301.563	41040
301.097	41050
300.342	41060
300.203	41070
300.429	41080
300.524	41090
300.541	41100
300.51	41110
300.619	41120
300.607	41130
300.672	41140
300.685	41150
300.719	41160
300.716	41170
300.753	41180
300.664	41190
300.669	41200
300.592	41210
300.576	41220
300.518	41230
300.516	41240
300.534	41250
300.523	41260
300.51	41270
300.524	41280
300.519	41290
300.532	41300
300.488	41310
300.504	41320
300.476	41330
300.499	41340
300.506	41350
300.536	41360
300.542	41370
300.503	41380
300.558	41390
300.505	41400
300.508	41410
300.508	41420
300.54	41430
300.478	41440
300.523	41450
300.496	41460
300.518	41470
300.523	41480
300.547	41490
300.529	41500
300.511	41510
300.559	41520
300.559	41530
300.541	41540
300.491	41550
300.483	41560
300.526	41570
300.5	41580
300.528	41590
300.521	41600
300.546	41610
300.49	41620
300.498	41630
300.534	41640
300.57	41650
300.521	41660
300.523	41670
300.494	41680
300.539	41690
300.528	41700
300.534	41710
300.606	41720
300.635	41730
300.623	41740
300.674	41750
300.67	41760
300.664	41770
300.569	41780
300.607	41790
300.491	41800
300.517	41810
300.498	41820
300.54	41830
300.403	41840
300.222	41850
300.622	41860
301.388	41870
301.34	41880
300.537	41890
300.174	41900
300.384	41910
300.495	41920
300.509	41930
300.566	41940
300.6	41950
300.613	41960
300.601	41970
300.682	41980
300.753	41990
300.711	42000
300.7	42010
300.685	42020
300.661	42030
300.614	42040
300.595	42050
300.526	42060
300.559	42070
300.528	42080
300.51	42090
300.516	42100
300.517	42110
300.533	42120
300.517	42130
300.496	42140
300.527	42150
300.546	42160
300.538	42170
300.488	42180
300.573	42190
300.498	42200
300.503	42210
300.488	42220
300.533	42230
300.53	42240
300.517	42250
300.475	42260
300.513	42270
300.583	42280
300.566	42290
300.519	42300
300.554	42310
300.492	42320
300.498	42330
300.488	42340
300.508	42350
300.535	42360
300.514	42370
300.592	42380
300.524	42390
300.537	42400
300.526	42410
300.523	42420
300.55	42430
300.478	42440
300.532	42450
300.541	42460
300.486	42470
300.503	42480
300.513	42490
300.525	42500
300.497	42510
300.559	42520
300.55	42530
300.559	42540
300.599	42550
300.619	42560
300.678	42570
300.692	42580
300.679	42590
300.612	42600
300.635	42610
300.556	42620
300.523	42630
300.524	42640
300.529	42650
300.515	42660
300.489	42670
300.309	42680
300.376	42690
301.152	42700
301.548	42710
300.83	42720
300.253	42730
300.264	42740
300.49	42750
300.517	42760
300.536	42770
300.599	42780
300.568	42790
300.654	42800
300.688	42810
300.713	42820
300.7	42830
300.723	42840
300.678	42850
300.676	42860
300.62	42870
300.614	42880
300.559	42890
300.534	42900
300.565	42910
300.529	42920
300.496	42930
300.53	42940
300.508	42950
300.544	42960
300.503	42970
300.509	42980
300.511	42990
300.518	43000
300.509	43010
300.517	43020
300.52	43030
300.551	43040
300.548	43050
300.55	43060
300.504	43070
300.535	43080
300.527	43090
300.522	43100
300.508	43110
300.507	43120
300.56	43130
300.489	43140
300.547	43150
300.511	43160
300.486	43170
300.512	43180
300.501	43190
300.508	43200
300.522	43210
300.516	43220
300.533	43230
300.55	43240
300.532	43250
300.512	43260
300.5	43270
300.489	43280
300.525	43290
300.507	43300
300.51	43310
300.554	43320
300.521	43330
300.514	43340
300.515	43350
300.534	43360
300.53	43370
300.566	43380
300.593	43390
300.667	43400
300.669	43410
300.686	43420
300.669	43430
300.623	43440
300.602	43450
300.559	43460
300.564	43470
300.506	43480
300.53	43490
300.521	43500
300.336	43510
300.357	43520
300.888	43530
301.545	43540
301.068	43550
300.323	43560
300.182	43570
300.425	43580
300.489	43590
300.535	43600
300.569	43610
300.61	43620
300.604	43630
300.673	43640
300.69	43650
300.706	43660
300.702	43670
300.698	43680
300.678	43690
300.648	43700
300.582	43710
300.588	43720
300.58	43730
300.534	43740
300.508	43750
300.512	43760
300.54	43770
300.468	43780
300.456	43790
300.473	43800
300.51	43810
300.559	43820
300.491	43830
300.494	43840
300.517	43850
300.534	43860
300.519	43870
300.516	43880
300.497	43890
300.518	43900
300.523	43910
300.526	43920
300.557	43930
300.525	43940
300.53	43950
300.528	43960
300.522	43970
300.531	43980
300.489	43990
300.538	44000
300.529	44010
300.514	44020
300.534	44030
300.516	44040
300.503	44050
300.503	44060
300.548	44070
300.5	44080
300.541	44090
300.537	44100
300.51	44110
300.505	44120
300.488	44130
300.476	44140
300.507	44150
300.504	44160
300.528	44170
300.537	44180
300.506	44190
300.519	44200
300.586	44210
300.599	44220
300.622	44230
300.666	44240
300.659	44250
300.679	44260
300.592	44270
300.598	44280
300.546	44290
300.513	44300
300.512	44310
300.527	44320
300.505	44330
300.439	44340
300.264	44350
300.611	44360
301.361	44370
301.405	44380
300.52	44390
300.161	44400
300.366	44410
300.447	44420
300.565	44430
300.554	44440
300.598	44450
300.639	44460
300.667	44470
300.714	44480
300.711	44490
300.753	44500
300.728	44510
300.694	44520
300.614	44530
300.625	44540
300.575	44550
300.567	44560
300.555	44570
300.538	44580
300.493	44590
300.494	44600
300.523	44610
300.492	44620
300.537	44630
300.468	44640
300.508	44650
300.467	44660
300.503	44670
300.519	44680
300.525	44690
300.512	44700
300.509	44710
300.493	44720
300.496	44730
300.478	44740
300.507	44750
300.505	44760
300.499	44770
300.494	44780
300.478	44790
300.539	44800
300.485	44810
300.542	44820
300.484	44830
300.526	44840
300.515	44850
300.531	44860
300.503	44870
300.48	44880
300.485	44890
300.521	44900
300.47	44910
300.472	44920
300.523	44930
300.507	44940
300.467	44950
300.51	44960
300.505	44970
300.492	44980
300.455	44990
300.515	45000
300.522	45010
300.499	45020
300.56	45030
300.521	45040
300.558	45050
300.596	45060
300.658	45070
300.652	45080
300.675	45090
300.626	45100
300.581	45110
300.597	45120
300.536	45130
300.511	45140
300.507	45150
300.509	45160
300.456	45170
300.251	45180
300.409	45190
301.157	45200
301.516	45210
300.797	45220
300.187	45230
300.261	45240
300.456	45250
300.503	45260
300.534	45270
300.585	45280
300.641	45290
300.612	45300
300.668	45310
300.695	45320
300.703	45330
300.721	45340
300.695	45350
300.668	45360
300.64	45370
300.566	45380
300.552	45390
300.506	45400
300.51	45410
300.508	45420
300.471	45430
300.478	45440
300.528	45450
300.506	45460
300.506	45470
300.505	45480
300.508	45490
300.53	45500
300.494	45510
300.48	45520
300.522	45530
300.488	45540
300.482	45550
300.487	45560
300.488	45570
300.512	45580
300.491	45590
300.484	45600
300.498	45610
300.509	45620
300.482	45630
300.48	45640
300.485	45650
300.509	45660
300.493	45670
300.522	45680
300.491	45690
300.482	45700
300.493	45710
300.523	45720
300.508	45730
300.505	45740
300.492	45750
300.471	45760
300.469	45770
300.502	45780
300.518	45790
300.481	45800
300.445	45810
300.489	45820
300.483	45830
300.47	45840
300.522	45850
300.483	45860
300.504	45870
300.529	45880
300.543	45890
300.611	45900
300.667	45910
300.688	45920
300.614	45930
300.621	45940
300.563	45950
300.547	45960
300.535	45970
300.502	45980
300.507	45990
300.453	46000
300.314	46010
300.287	46020
300.847	46030
301.518	46040
301.042	46050
300.351	46060
300.141	46070
300.396	46080
300.527	46090
300.516	46100
300.512	46110
300.512	46120
300.565	46130
300.634	46140
300.676	46150
300.697	46160
300.678	46170
300.689	46180
300.648	46190
300.619	46200
300.578	46210
300.523	46220
300.555	46230
300.49	46240
300.486	46250
300.523	46260
300.489	46270
300.46	46280
300.484	46290
300.499	46300
300.463	46310
300.476	46320
300.446	46330
300.492	46340
300.455	46350
300.466	46360
300.5	46370
300.481	46380
300.503	46390
300.494	46400
300.47	46410
300.487	46420
300.48	46430
300.487	46440
300.466	46450
300.463	46460
300.463	46470
300.506	46480
300.498	46490
300.5	46500
300.494	46510
300.461	46520
300.492	46530
300.453	46540
300.496	46550
300.469	46560
300.515	46570
300.484	46580
300.509	46590
300.472	46600
300.493	46610
300.48	46620
300.506	46630
300.447	46640
300.475	46650
300.465	46660
300.451	46670
300.489	46680
300.518	46690
300.499	46700
300.509	46710
300.567	46720
300.597	46730
300.613	46740
300.69	46750
300.639	46760
300.603	46770
300.55	46780
300.524	46790
300.501	46800
300.454	46810
300.492	46820
300.443	46830
300.371	46840
300.23	46850
300.614	46860
301.344	46870
301.365	46880
300.519	46890
300.153	46900
300.286	46910
300.483	46920
300.517	46930
300.515	46940
300.536	46950
300.566	46960
300.6	46970
300.612	46980
300.699	46990
300.667	47000
300.667	47010
300.667	47020
300.659	47030
300.58	47040
300.546	47050
300.535	47060
300.51	47070
300.501	47080
300.481	47090
300.494	47100
300.443	47110
300.456	47120
300.509	47130
300.471	47140
300.474	47150
300.474	47160
300.507	47170
300.497	47180
300.493	47190
300.449	47200
300.46	47210
300.482	47220
300.509	47230
300.477	47240
300.493	47250
300.484	47260
300.448	47270
300.449	47280
300.474	47290
300.456	47300
300.479	47310
300.468	47320
300.478	47330
300.483	47340
300.475	47350
300.515	47360
300.462	47370
300.489	47380
300.494	47390
300.459	47400
300.468	47410
300.499	47420
300.492	47430
300.494	47440
300.474	47450
300.481	47460
300.491	47470
300.478	47480
300.488	47490
300.469	47500
300.472	47510
300.511	47520
300.457	47530
300.523	47540
300.552	47550
300.565	47560
300.604	47570
300.623	47580
300.664	47590
300.572	47600
300.56	47610
300.533	47620
300.519	47630
300.464	47640
300.491	47650
300.453	47660
300.439	47670
300.252	47680
300.453	47690
301.114	47700
301.513	47710
300.77	47720
300.177	47730
300.226	47740
300.444	47750
300.505	47760
300.529	47770
300.548	47780
300.606	47790
300.619	47800
300.617	47810
300.658	47820
300.719	47830
300.674	47840
300.652	47850
300.639	47860
300.576	47870
300.575	47880
300.502	47890
300.492	47900
300.466	47910
300.473	47920
300.445	47930
300.464	47940
300.508	47950
300.438	47960
300.478	47970
300.493	47980
300.449	47990
300.472	48000
300.503	48010
300.448	48020
300.476	48030
300.476	48040
300.49	48050
300.485	48060
300.496	48070
300.483	48080
300.479	48090
300.461	48100
300.488	48110
300.477	48120
300.473	48130
300.471	48140
300.47	48150
300.51	48160
300.484	48170
300.497	48180
300.433	48190
300.508	48200
300.524	48210
300.462	48220
300.509	48230
300.482	48240
300.488	48250
300.473	48260
300.511	48270
300.493	48280
300.507	48290
300.472	48300
300.472	48310
300.52	48320
300.517	48330
300.49	48340
300.501	48350
300.466	48360
300.499	48370
300.528	48380
300.568	48390
300.59	48400
300.652	48410
300.653	48420
300.616	48430
300.617	48440
300.524	48450
300.52	48460
300.49	48470
300.478	48480
300.449	48490
300.485	48500
300.334	48510
300.294	48520
300.863	48530
301.513	48540
301.091	48550
300.311	48560
300.127	48570
300.379	48580
300.491	48590
300.513	48600
300.549	48610
300.554	48620
300.625	48630
300.653	48640
300.673	48650
300.747	48660
300.721	48670
300.707	48680
300.673	48690
300.577	48700
300.588	48710
300.522	48720
300.54	48730
300.499	48740
300.504	48750
300.49	48760
300.45	48770
300.476	48780
300.51	48790
300.47	48800
300.495	48810
300.503	48820
300.492	48830
300.501	48840
300.468	48850
300.503	48860
300.526	48870
300.503	48880
300.502	48890
300.479	48900
300.492	48910
300.501	48920
300.491	48930
300.473	48940
300.475	48950
300.478	48960
300.497	48970
300.487	48980
300.502	48990
300.483	49000
300.458	49010
300.489	49020
300.487	49030
300.489	49040
300.506	49050
300.514	49060
300.475	49070
300.488	49080
300.462	49090
300.494	49100
300.477	49110
300.457	49120
300.504	49130
300.493	49140
300.474	49150
300.48	49160
300.514	49170
300.516	49180
300.512	49190
300.512	49200
300.544	49210
300.577	49220
300.602	49230
300.679	49240
300.681	49250
300.625	49260
300.61	49270
300.539	49280
300.56	49290
300.505	49300
300.494	49310
300.506	49320
300.474	49330
300.382	49340
300.22	49350
300.624	49360
301.414	49370
301.361	49380
300.569	49390
300.134	49400
300.317	49410
300.489	49420
300.511	49430
300.541	49440
300.577	49450
300.629	49460
300.593	49470
300.701	49480
300.707	49490
300.687	49500
300.716	49510
300.655	49520
300.642	49530
300.578	49540
300.561	49550
300.542	49560
300.501	49570
300.51	49580
300.522	49590
300.476	49600
300.506	49610
300.498	49620
300.535	49630
300.486	49640
300.527	49650
300.53	49660
300.453	49670
300.522	49680
300.492	49690
300.498	49700
300.473	49710
300.478	49720
300.52	49730
300.502	49740
300.498	49750
300.509	49760
300.48	49770
300.517	49780
300.471	49790
300.496	49800
300.519	49810
300.511	49820
300.469	49830
300.529	49840
300.514	49850
300.515	49860
300.487	49870
300.493	49880
300.51	49890
300.479	49900
300.533	49910
300.47	49920
300.482	49930
300.509	49940
300.517	49950
300.515	49960
300.502	49970
300.469	49980
300.517	49990
300.542	50000
300.487	50010
300.524	50020
300.549	50030
300.528	50040
300.561	50050
300.603	50060
300.654	50070
300.66	50080
300.646	50090
300.607	50100
300.565	50110
300.556	50120
300.531	50130
300.55	50140
300.522	50150
300.509	50160
300.479	50170
300.31	50180
300.411	50190
301.136	50200
301.514	50210
300.798	50220
300.191	50230
300.241	50240
300.5	50250
300.516	50260
300.53	50270
300.552	50280
300.556	50290
300.667	50300
300.655	50310
300.67	50320
300.698	50330
300.75	50340
300.698	50350
300.675	50360
300.636	50370
300.55	50380
300.57	50390
300.574	50400
300.527	50410
300.493	50420
300.513	50430
300.49	50440
300.459	50450
300.472	50460
300.552	50470
300.49	50480
300.507	50490
300.48	50500
300.519	50510
300.502	50520
300.506	50530
300.484	50540
300.501	50550
300.532	50560
300.538	50570
300.511	50580
300.512	50590
300.51	50600
300.497	50610
300.558	50620
300.505	50630
300.488	50640
300.487	50650
300.535	50660
300.502	50670
300.51	50680
300.514	50690
300.482	50700
300.49	50710
300.532	50720
300.528	50730
300.511	50740
300.521	50750
300.506	50760
300.506	50770
300.517	50780
300.457	50790
300.489	50800
300.499	50810
300.475	50820
300.518	50830
300.487	50840
300.487	50850
300.528	50860
300.538	50870
300.556	50880
300.626	50890
300.635	50900
300.673	50910
300.654	50920
300.641	50930
300.603	50940
300.566	50950
300.538	50960
300.508	50970
300.577	50980
300.492	50990
300.494	51000
300.352	51010
300.32	51020
300.862	51030
301.536	51040
301.079	51050
300.321	51060
300.209	51070
300.41	51080
300.55	51090
300.522	51100
300.579	51110
300.575	51120
300.629	51130
300.67	51140
300.704	51150
300.696	51160
300.73	51170
300.698	51180
300.675	51190
300.61	51200
300.614	51210
300.573	51220
300.554	51230
300.54	51240
300.509	51250
300.533	51260
300.539	51270
300.511	51280
300.531	51290
300.546	51300
300.491	51310
300.516	51320
300.521	51330
300.539	51340
300.495	51350
300.496	51360
300.482	51370
300.521	51380
300.52	51390
300.518	51400
300.469	51410
300.51	51420
300.531	51430
300.489	51440
300.506	51450
300.529	51460
300.551	51470
300.537	51480
300.53	51490
300.587	51500
300.52	51510
300.508	51520
300.483	51530
300.5	51540
300.498	51550
300.595	51560
300.507	51570
300.514	51580
300.487	51590
300.503	51600
300.521	51610
300.512	51620
300.487	51630
300.524	51640
300.524	51650
300.52	51660
300.493	51670
300.509	51680
300.521	51690
300.553	51700
300.577	51710
300.573	51720
300.649	51730
300.652	51740
300.67	51750
300.663	51760
300.62	51770
300.562	51780
300.576	51790
300.544	51800
300.54	51810
300.511	51820
300.527	51830
300.445	51840
300.296	51850
300.644	51860
301.414	51870
301.378	51880
300.582	51890
300.207	51900
300.329	51910
300.49	51920
300.546	51930
300.556	51940
300.596	51950
300.607	51960
300.661	51970
300.705	51980
300.745	51990
300.757	52000
300.733	52010
300.669	52020
300.641	52030
300.6	52040
300.571	52050
300.532	52060
300.559	52070
300.551	52080
300.534	52090
300.501	52100
300.531	52110
300.523	52120
300.512	52130
300.516	52140
300.495	52150
300.528	52160
300.543	52170
300.528	52180
300.495	52190
300.535	52200
300.551	52210
300.542	52220
300.495	52230
300.496	52240
300.5	52250
300.51	52260
300.518	52270
300.553	52280
300.553	52290
300.519	52300
300.535	52310
300.516	52320
300.518	52330
300.523	52340
300.524	52350
300.503	52360
300.557	52370
300.48	52380
300.567	52390
300.519	52400
300.501	52410
300.544	52420
300.504	52430
300.488	52440
300.551	52450
300.537	52460
300.5	52470
300.528	52480
300.534	52490
300.504	52500
300.544	52510
300.534	52520
300.498	52530
300.564	52540
300.622	52550
300.606	52560
300.658	52570
300.67	52580
300.675	52590
300.649	52600
300.612	52610
300.624	52620
300.558	52630
300.536	52640
300.535	52650
300.506	52660
300.489	52670
300.292	52680
300.471	52690
301.132	52700
301.543	52710
300.817	52720
300.216	52730
300.244	52740
300.477	52750
300.545	52760
300.543	52770
300.579	52780
300.651	52790
300.654	52800
300.676	52810
300.72	52820
300.732	52830
300.744	52840
300.718	52850
300.698	52860
300.635	52870
300.576	52880
300.527	52890
300.518	52900
300.533	52910
300.54	52920
300.537	52930
300.547	52940
300.54	52950
300.52	52960
300.542	52970
300.502	52980
300.51	52990
300.459	53000
300.547	53010
300.519	53020
300.505	53030
300.51	53040
300.5	53050
300.516	53060
300.514	53070
300.516	53080
300.55	53090
300.505	53100
300.565	53110
300.521	53120
300.538	53130
300.526	53140
300.493	53150
300.52	53160
300.506	53170
300.513	53180
300.527	53190
300.486	53200
300.5	53210
300.528	53220
300.533	53230
300.508	53240
300.538	53250
300.563	53260
300.528	53270
300.514	53280
300.495	53290
300.507	53300
300.511	53310
300.53	53320
300.479	53330
300.506	53340
300.544	53350
300.518	53360
300.533	53370
300.524	53380
300.606	53390
300.615	53400
300.653	53410
300.677	53420
300.642	53430
300.618	53440
300.6	53450
300.568	53460
300.542	53470
300.566	53480
300.501	53490
300.49	53500
300.339	53510
300.358	53520
300.876	53530
301.55	53540
301.104	53550
300.339	53560
300.197	53570
300.427	53580
300.542	53590
300.518	53600
300.557	53610
300.56	53620
300.665	53630
300.694	53640
300.712	53650
300.717	53660
300.736	53670
300.735	53680
300.668	53690
300.643	53700
300.605	53710
300.586	53720
300.53	53730
300.525	53740
300.525	53750
300.508	53760
300.507	53770
300.471	53780
300.5	53790
300.514	53800
300.533	53810
300.513	53820
300.507	53830
300.473	53840
300.501	53850
300.504	53860
300.469	53870
300.505	53880
300.52	53890
300.509	53900
300.486	53910
300.518	53920
300.521	53930
300.481	53940
300.54	53950
300.52	53960
300.484	53970
300.498	53980
300.528	53990
300.519	54000
300.534	54010
300.494	54020
300.524	54030
300.501	54040
300.498	54050
300.497	54060
300.508	54070
300.503	54080
300.503	54090
300.544	54100
300.482	54110
300.524	54120
300.524	54130
300.515	54140
300.514	54150
300.532	54160
300.512	54170
300.486	54180
300.546	54190
300.571	54200
300.552	54210
300.548	54220
300.623	54230
300.623	54240
300.683	54250
300.638	54260
300.621	54270
300.557	54280
300.545	54290
300.496	54300
300.533	54310
300.528	54320
300.504	54330
300.383	54340
300.247	54350
300.608	54360
301.392	54370
301.382	54380
300.529	54390
300.139	54400
300.332	54410
300.529	54420
300.547	54430
300.542	54440
300.567	54450
300.554	54460
300.66	54470
300.703	54480
300.743	54490
300.729	54500
300.718	54510
300.721	54520
300.657	54530
300.591	54540
300.575	54550
300.53	54560
300.528	54570
300.521	54580
300.54	54590
300.499	54600
300.536	54610
300.521	54620
300.499	54630
300.49	54640
300.502	54650
300.5	54660
300.502	54670
300.491	54680
300.5	54690
300.496	54700
300.517	54710
300.499	54720
300.48	54730
300.543	54740
300.494	54750
300.481	54760
300.496	54770
300.502	54780
300.526	54790
300.463	54800
300.487	54810
300.491	54820
300.471	54830
300.477	54840
300.505	54850
300.484	54860
300.516	54870
300.503	54880
300.488	54890
300.508	54900
300.523	54910
300.535	54920
300.487	54930
300.505	54940
300.497	54950
300.515	54960
300.496	54970
300.513	54980
300.523	54990
300.518	55000
300.496	55010
300.497	55020
300.484	55030
300.547	55040
300.595	55050
300.61	55060
300.631	55070
300.69	55080
300.647	55090
300.611	55100
300.573	55110
300.563	55120
300.532	55130
300.501	55140
300.554	55150
300.485	55160
300.52	55170
300.275	55180
300.43	55190
301.088	55200
301.501	55210
300.799	55220
300.173	55230
300.238	55240
300.425	55250
300.514	55260
300.558	55270
300.565	55280
300.579	55290
300.653	55300
300.689	55310
300.693	55320
300.732	55330
300.687	55340
300.678	55350
300.635	55360
300.588	55370
300.582	55380
300.534	55390
300.529	55400
300.493	55410
300.533	55420
300.481	55430
300.484	55440
300.499	55450
300.494	55460
300.49	55470
300.498	55480
300.495	55490
300.491	55500
300.495	55510
300.515	55520
300.492	55530
300.478	55540
300.504	55550
300.431	55560
300.512	55570
300.451	55580
300.466	55590
300.519	55600
300.477	55610
300.495	55620
300.463	55630
300.502	55640
300.513	55650
300.491	55660
300.462	55670
300.478	55680
300.474	55690
300.488	55700
300.504	55710
300.435	55720
300.476	55730
300.485	55740
300.456	55750
300.473	55760
300.464	55770
300.511	55780
300.458	55790
300.444	55800
300.471	55810
300.461	55820
300.489	55830
300.501	55840
300.468	55850
300.472	55860
300.511	55870
300.498	55880
300.602	55890
300.633	55900
300.664	55910
300.639	55920
300.63	55930
300.574	55940
300.565	55950
300.517	55960
300.502	55970
300.475	55980
300.481	55990
300.467	56000
300.342	56010
300.304	56020
300.818	56030
301.488	56040
301.073	56050
300.313	56060
300.133	56070
300.394	56080
300.471	56090
300.53	56100
300.54	56110
300.557	56120
300.563	56130
300.664	56140
300.718	56150
300.657	56160
300.686	56170
300.676	56180
300.649	56190
300.625	56200
300.574	56210
300.545	56220
300.508	56230
300.51	56240
300.52	56250
300.504	56260
300.477	56270
300.511	56280
300.452	56290
300.508	56300
300.465	56310
300.497	56320
300.5	56330
300.467	56340
300.49	56350
300.516	56360
300.474	56370
300.513	56380
300.502	56390
300.455	56400
300.465	56410
300.513	56420
300.518	56430
300.461	56440
300.487	56450
300.462	56460
300.463	56470
300.503	56480
300.433	56490
300.497	56500
300.507	56510
300.462	56520
300.512	56530
300.483	56540
300.499	56550
300.448	56560
300.515	56570
300.473	56580
300.524	56590
300.473	56600
300.505	56610
300.523	56620
300.507	56630
300.497	56640
300.481	56650
300.468	56660
300.476	56670
300.485	56680
300.47	56690
300.511	56700
300.513	56710
300.566	56720
300.636	56730
300.656	56740
300.658	56750
300.653	56760
300.59	56770
300.528	56780
300.51	56790
300.522	56800
300.53	56810
300.523	56820
300.461	56830
300.381	56840
300.215	56850
300.615	56860
301.391	56870
301.365	56880
300.517	56890
300.123	56900
300.308	56910
300.469	56920
300.475	56930
300.504	56940
300.575	56950
300.565	56960
300.613	56970
300.642	56980
300.69	56990
300.688	57000
300.706	57010
300.633	57020
300.591	57030
300.605	57040
300.533	57050
300.514	57060
300.53	57070
300.474	57080
300.473	57090
300.491	57100
300.526	57110
300.466	57120
300.479	57130
300.467	57140
300.461	57150
300.476	57160
300.472	57170
300.473	57180
300.492	57190
300.472	57200
300.466	57210
300.495	57220
300.485	57230
300.51	57240
300.479	57250
300.5	57260
300.467	57270
300.491	57280
300.449	57290
300.492	57300
300.523	57310
300.481	57320
300.474	57330
300.489	57340
300.495	57350
300.473	57360
300.475	57370
300.469	57380
300.501	57390
300.499	57400
300.444	57410
300.472	57420
300.511	57430
300.496	57440
300.477	57450
300.469	57460
300.528	57470
300.46	57480
300.474	57490
300.466	57500
300.471	57510
300.511	57520
300.493	57530
300.53	57540
300.564	57550
300.564	57560
300.578	57570
300.622	57580
300.651	57590
300.586	57600
300.564	57610
300.528	57620
300.52	57630
300.468	57640
300.484	57650
300.477	57660
300.439	57670
300.232	57680
300.401	57690
301.091	57700
301.478	57710
300.768	57720
300.17	57730
300.218	57740
300.434	57750
300.497	57760
300.482	57770
300.557	57780
300.59	57790
300.582	57800
300.667	57810
300.688	57820
300.705	57830
300.675	57840
300.659	57850
300.585	57860
300.629	57870
300.571	57880
300.539	57890
300.511	57900
300.472	57910
300.512	57920
300.489	57930
300.502	57940
300.481	57950
300.48	57960
300.471	57970
300.47	57980
300.526	57990
300.478	58000
300.473	58010
300.494	58020
300.464	58030
300.432	58040
300.472	58050
300.449	58060
300.477	58070
300.507	58080
300.456	58090
300.517	58100
300.484	58110
300.495	58120
300.514	58130
300.461	58140
300.478	58150
300.495	58160
300.487	58170
300.49	58180
300.474	58190
300.484	58200
300.483	58210
300.517	58220
300.471	58230
300.473	58240
300.472	58250
300.472	58260
300.467	58270
300.443	58280
300.466	58290
300.511	58300
300.504	58310
300.481	58320
300.488	58330
300.479	58340
300.476	58350
300.456	58360
300.512	58370
300.526	58380
300.578	58390
300.639	58400
300.616	58410
300.681	58420
300.625	58430
300.583	58440
300.54	58450
300.529	58460
300.507	58470
300.489	58480
300.468	58490
300.43	58500
300.318	58510
300.3	58520
300.787	58530
301.455	58540
301.079	58550
300.302	58560
300.162	58570
300.373	58580
300.462	58590
300.473	58600
300.535	58610
300.547	58620
300.621	58630
300.615	58640
300.649	58650
300.711	58660
300.697	58670
300.662	58680
300.639	58690
300.622	58700
300.601	58710
300.54	58720
300.541	58730
300.523	58740
300.504	58750
300.529	58760
300.483	58770
300.498	58780
300.463	58790
300.5	58800
300.51	58810
300.482	58820
300.503	58830
300.501	58840
300.521	58850
300.468	58860
300.496	58870
300.474	58880
300.483	58890
300.499	58900
300.509	58910
300.473	58920
300.46	58930
300.555	58940
300.502	58950
300.502	58960
300.492	58970
300.503	58980
300.471	58990
300.49	59000
300.484	59010
300.491	59020
300.475	59030
300.491	59040
300.475	59050
300.512	59060
300.501	59070
300.515	59080
300.521	59090
300.471	59100
300.502	59110
300.486	59120
300.52	59130
300.468	59140
300.469	59150
300.469	59160
300.47	59170
300.462	59180
300.443	59190
300.509	59200
300.486	59210
300.597	59220
300.562	59230
300.618	59240
300.67	59250
300.601	59260
300.561	59270
300.554	59280
300.514	59290
300.488	59300
300.495	59310
300.48	59320
300.481	59330
300.377	59340
300.209	59350
300.568	59360
301.331	59370
301.358	59380
300.562	59390
300.165	59400
300.317	59410
300.503	59420
300.54	59430
300.582	59440
300.58	59450
300.618	59460
300.699	59470
300.672	59480
300.715	59490
300.714	59500
300.699	59510
300.672	59520
300.655	59530
300.58	59540
300.557	59550
300.504	59560
300.528	59570
300.491	59580
300.467	59590
300.479	59600
300.525	59610
300.47	59620
300.483	59630
300.44	59640
300.479	59650
300.493	59660
300.503	59670
300.508	59680
300.51	59690
300.505	59700
300.462	59710
300.526	59720
300.487	59730
300.525	59740
300.486	59750
300.515	59760
300.505	59770
300.487	59780
300.497	59790
300.445	59800
300.471	59810
300.49	59820
300.522	59830
300.482	59840
300.531	59850
300.482	59860
300.472	59870
300.501	59880
300.507	59890
300.472	59900
300.459	59910
300.501	59920
300.485	59930
300.487	59940
300.462	59950
300.465	59960
300.51	59970
300.494	59980
300.502	59990
300.496	60000
300.485	60010
300.512	60020
300.52	60030
300.523	60040
300.53	60050
300.586	60060
300.633	60070
300.689	60080
300.652	60090
300.662	60100
300.556	60110
300.573	60120
300.531	60130
300.469	60140
300.539	60150
300.473	60160
300.477	60170
300.276	60180
300.403	60190
301.139	60200
301.556	60210
300.808	60220
300.226	60230
300.261	60240
300.476	60250
300.52	60260
300.547	60270
300.542	60280
300.574	60290
300.598	60300
300.651	60310
300.688	60320
300.695	60330
300.72	60340
300.671	60350
300.667	60360
300.617	60370
300.596	60380
300.564	60390
300.552	60400
300.502	60410
300.515	60420
300.528	60430
300.501	60440
300.524	60450
300.435	60460
300.487	60470
300.498	60480
300.489	60490
300.5	60500
300.527	60510
300.485	60520
300.533	60530
300.498	60540
300.5	60550
300.482	60560
300.538	60570
300.525	60580
300.49	60590
300.525	60600
300.504	60610
300.508	60620
300.52	60630
300.521	60640
300.495	60650
300.503	60660
300.508	60670
300.522	60680
300.482	60690
300.515	60700
300.505	60710
300.527	60720
300.523	60730
300.514	60740
300.525	60750
300.529	60760
300.493	60770
300.521	60780
300.503	60790
300.491	60800
300.506	60810
300.518	60820
300.49	60830
300.488	60840
300.52	60850
300.546	60860
300.515	60870
300.581	60880
300.574	60890
300.64	60900
300.684	60910
300.665	60920
300.655	60930
300.613	60940
300.601	60950
300.565	60960
300.542	60970
300.501	60980
300.514	60990
300.531	61000
300.364	61010
300.28	61020
300.885	61030
301.585	61040
301.117	61050
300.343	61060
300.137	61070
300.454	61080
300.482	61090
300.527	61100
300.533	61110
300.563	61120
300.664	61130
300.667	61140
300.688	61150
300.738	61160
300.715	61170
300.734	61180
300.709	61190
300.644	61200
300.572	61210
300.574	61220
300.602	61230
300.561	61240
300.547	61250
300.51	61260
300.514	61270
300.553	61280
300.501	61290
300.535	61300
300.508	61310
300.511	61320
300.506	61330
300.516	61340
300.506	61350
300.495	61360
300.52	61370
300.534	61380
300.512	61390
300.514	61400
300.53	61410
300.504	61420
300.536	61430
300.502	61440
300.57	61450
300.512	61460
300.532	61470
300.501	61480
300.51	61490
300.542	61500
300.539	61510
300.541	61520
300.518	61530
300.518	61540
300.522	61550
300.521	61560
300.524	61570
300.547	61580
300.516	61590
300.512	61600
300.479	61610
300.539	61620
300.548	61630
300.491	61640
300.512	61650
300.55	61660
300.535	61670
300.483	61680
300.508	61690
300.558	61700
300.584	61710
300.617	61720
300.626	61730
300.665	61740
300.666	61750
300.666	61760
300.64	61770
300.542	61780
300.572	61790
300.575	61800
300.529	61810
300.527	61820
300.548	61830
300.459	61840
300.28	61850
300.686	61860
301.394	61870
301.399	61880
300.533	61890
300.188	61900
300.347	61910
300.54	61920
300.507	61930
300.548	61940
300.504	61950
300.597	61960
300.691	61970
300.658	61980
300.711	61990
300.737	62000
300.677	62010
300.698	62020
300.685	62030
300.604	62040
300.579	62050
300.543	62060
300.584	62070
300.502	62080
300.544	62090
300.489	62100
300.525	62110
300.522	62120
300.503	62130
300.526	62140
300.483	62150
300.518	62160
300.544	62170
300.549	62180
300.524	62190
300.534	62200
300.529	62210
300.526	62220
300.514	62230
300.523	62240
300.528	62250
300.491	62260
300.527	62270
300.484	62280
300.522	62290
300.524	62300
300.494	62310
300.516	62320
300.482	62330
300.482	62340
300.506	62350
300.535	62360
300.505	62370
300.499	62380
300.527	62390
300.456	62400
300.523	62410
300.492	62420
300.538	62430
300.52	62440
300.522	62450
300.526	62460
300.518	62470
300.496	62480
300.528	62490
300.544	62500
300.523	62510
300.52	62520
300.557	62530
300.537	62540
300.589	62550
300.642	62560
300.637	62570
300.641	62580
300.647	62590
300.64	62600
300.627	62610
300.579	62620
300.509	62630
300.548	62640
300.565	62650
300.557	62660
300.473	62670
300.302	62680
300.429	62690
301.173	62700
301.493	62710
300.828	62720
300.188	62730
300.255	62740
300.474	62750
300.54	62760
300.557	62770
300.572	62780
300.62	62790
300.643	62800
300.695	62810
300.655	62820
300.743	62830
300.739	62840
300.734	62850
300.655	62860
300.67	62870
300.644	62880
300.518	62890
300.514	62900
300.534	62910
300.522	62920
300.537	62930
300.557	62940
300.498	62950
300.525	62960
300.498	62970
300.509	62980
300.531	62990
300.497	63000
300.551	63010
300.517	63020
300.521	63030
300.54	63040
300.53	63050
300.5	63060
300.488	63070
300.535	63080
300.529	63090
300.537	63100
300.524	63110
300.495	63120
300.514	63130
300.482	63140
300.542	63150
300.517	63160
300.49	63170
300.518	63180
300.469	63190
300.538	63200
300.517	63210
300.506	63220
300.488	63230
300.555	63240
300.524	63250
300.518	63260
300.501	63270
300.53	63280
300.458	63290
300.502	63300
300.54	63310
300.49	63320
300.5	63330
300.511	63340
300.503	63350
300.505	63360
300.579	63370
300.569	63380
300.562	63390
300.701	63400
300.664	63410
300.67	63420
300.62	63430
300.575	63440
300.575	63450
300.574	63460
300.539	63470
300.519	63480
300.523	63490
300.47	63500
300.369	63510
300.348	63520
300.853	63530
301.49	63540
301.101	63550
300.349	63560
300.178	63570
300.442	63580
300.484	63590
300.534	63600
300.58	63610
300.6	63620
300.659	63630
300.665	63640
300.736	63650
300.716	63660
300.743	63670
300.719	63680
300.693	63690
300.644	63700
300.59	63710
300.554	63720
300.561	63730
300.54	63740
300.512	63750
300.477	63760
300.504	63770
300.491	63780
300.523	63790
300.519	63800
300.517	63810
300.525	63820
300.503	63830
300.531	63840
300.515	63850
300.499	63860
300.493	63870
300.524	63880
300.492	63890
300.489	63900
300.491	63910
300.524	63920
300.483	63930
300.496	63940
300.532	63950
300.504	63960
300.493	63970
300.503	63980
300.528	63990
300.528	64000
300.524	64010
300.5	64020
300.511	64030
300.46	64040
300.517	64050
300.533	64060
300.532	64070
300.508	64080
300.516	64090
300.471	64100
300.518	64110
300.529	64120
300.477	64130
300.498	64140
300.491	64150
300.491	64160
300.481	64170
300.502	64180
300.539	64190
300.505	64200
300.555	64210
300.55	64220
300.599	64230
300.642	64240
300.646	64250
300.68	64260
300.627	64270
300.629	64280
300.547	64290
300.524	64300
300.541	64310
300.509	64320
300.508	64330
300.398	64340
300.243	64350
300.628	64360
301.39	64370
301.364	64380
300.581	64390
300.128	64400
300.321	64410
300.484	64420
300.54	64430
300.576	64440
300.611	64450
300.619	64460
300.632	64470
300.696	64480
300.681	64490
300.708	64500
300.702	64510
300.692	64520
300.649	64530
300.608	64540
300.574	64550
300.539	64560
300.564	64570
300.514	64580
300.496	64590
300.48	64600
300.497	64610
300.563	64620
300.461	64630
300.502	64640
300.487	64650
300.523	64660
300.487	64670
300.493	64680
300.523	64690
300.524	64700
300.526	64710
300.489	64720
300.512	64730
300.505	64740
300.503	64750
300.468	64760
300.477	64770
300.516	64780
300.465	64790
300.509	64800
300.474	64810
300.502	64820
300.459	64830
300.543	64840
300.465	64850
300.522	64860
300.477	64870
300.504	64880
300.484	64890
300.518	64900
300.512	64910
300.501	64920
300.502	64930
300.519	64940
300.514	64950
300.47	64960
300.488	64970
300.492	64980
300.473	64990
300.504	65000
300.507	65010
300.528	65020
300.506	65030
300.529	65040
300.558	65050
300.611	65060
300.639	65070
300.691	65080
300.647	65090
300.624	65100
300.603	65110
300.589	65120
300.535	65130
300.462	65140
300.508	65150
300.484	65160
300.477	65170
300.239	65180
300.435	65190
301.138	65200
301.551	65210
300.811	65220
300.212	65230
300.232	65240
300.462	65250
300.486	65260
300.527	65270
300.567	65280
300.576	65290
300.637	65300
300.659	65310
300.707	65320
300.72	65330
300.662	65340
300.681	65350
300.654	65360
300.578	65370
300.528	65380
300.572	65390
300.531	65400
300.506	65410
300.513	65420
300.475	65430
300.514	65440
300.508	65450
300.461	65460
300.503	65470
300.473	65480
300.52	65490
300.488	65500
300.469	65510
300.503	65520
300.48	65530
300.478	65540
300.481	65550
300.455	65560
300.465	65570
300.461	65580
300.506	65590
300.497	65600
300.495	65610
300.469	65620
300.512	65630
300.465	65640
300.503	65650
300.521	65660
300.486	65670
300.506	65680
300.492	65690
300.482	65700
300.507	65710
300.494	65720
300.477	65730
300.464	65740
300.477	65750
300.485	65760
300.518	65770
300.516	65780
300.513	65790
300.49	65800
300.473	65810
300.492	65820
300.459	65830
300.486	65840
300.468	65850
300.477	65860
300.517	65870
300.545	65880
300.568	65890
300.632	65900
300.678	65910
300.609	65920
300.631	65930
300.596	65940
300.521	65950
300.545	65960
300.517	65970
300.506	65980
300.521	65990
300.499	66000
300.335	66010
300.276	66020
300.843	66030
301.513	66040
301.108	66050
300.293	66060
300.136	66070
300.425	66080
300.541	66090
300.476	66100
300.553	66110
300.624	66120
300.615	66130
300.629	66140
300.647	66150
300.7	66160
300.681	66170
300.689	66180
300.653	66190
300.621	66200
300.609	66210
300.535	66220
300.507	66230
300.517	66240
300.444	66250
300.474	66260
300.525	66270
300.516	66280
300.447	66290
300.49	66300
300.513	66310
300.496	66320
300.47	66330
300.451	66340
300.489	66350
300.5	66360
300.498	66370
300.475	66380
300.492	66390
300.478	66400
300.49	66410
300.49	66420
300.472	66430
300.499	66440
300.463	66450
300.497	66460
300.499	66470
300.487	66480
300.459	66490
300.457	66500
300.476	66510
300.487	66520
300.509	66530
300.466	66540
300.505	66550
300.489	66560
300.458	66570
300.504	66580
300.463	66590
300.493	66600
300.478	66610
300.513	66620
300.491	66630
300.501	66640
300.481	66650
300.492	66660
300.479	66670
300.493	66680
300.478	66690
300.494	66700
300.497	66710
300.554	66720
300.618	66730
300.642	66740
300.636	66750
300.622	66760
300.599	66770
300.545	66780
300.552	66790
300.507	66800
300.473	66810
300.488	66820
300.49	66830
300.421	66840
300.227	66850
300.599	66860
301.342	66870
301.309	66880
300.514	66890
300.142	66900
300.318	66910
300.474	66920
300.483	66930
300.518	66940
300.552	66950
300.6	66960
300.571	66970
300.648	66980
300.706	66990
300.669	67000
300.72	67010
300.681	67020
300.585	67030
300.607	67040
300.536	67050
300.508	67060
300.484	67070
300.459	67080
300.472	67090
300.445	67100
300.5	67110
300.448	67120
300.497	67130
300.47	67140
300.491	67150
300.53	67160
300.525	67170
300.486	67180
300.497	67190
300.499	67200
300.462	67210
300.452	67220
300.498	67230
300.499	67240
300.48	67250
300.494	67260
300.495	67270
300.499	67280
300.492	67290
300.471	67300
300.474	67310
300.475	67320
300.439	67330
300.479	67340
300.469	67350
300.492	67360
300.502	67370
300.472	67380
300.483	67390
300.461	67400
300.456	67410
300.491	67420
300.479	67430
300.482	67440
300.508	67450
300.441	67460
300.45	67470
300.488	67480
300.523	67490
300.512	67500
300.485	67510
300.471	67520
300.484	67530
300.538	67540
300.527	67550
300.551	67560
300.626	67570
300.595	67580
300.596	67590
300.595	67600
300.572	67610
300.527	67620
300.5	67630
300.491	67640
300.492	67650
300.503	67660
300.435	67670
300.24	67680
300.439	67690
301.09	67700
301.486	67710
300.751	67720
300.194	67730
300.211	67740
300.426	67750
300.49	67760
300.527	67770
300.533	67780
300.565	67790
300.569	67800
300.626	67810
300.687	67820
300.688	67830
300.711	67840
300.695	67850
300.615	67860
300.63	67870
300.56	67880
300.524	67890
300.55	67900
300.503	67910
300.496	67920
300.5	67930
300.454	67940
300.481	67950
300.477	67960
300.47	67970
300.464	67980
300.464	67990
300.427	68000
300.476	68010
300.468	68020
300.45	68030
300.448	68040
300.478	68050
300.46	68060
300.487	68070
300.484	68080
300.485	68090
300.482	68100
300.451	68110
300.482	68120
300.456	68130
300.436	68140
300.497	68150
300.491	68160
300.454	68170
300.473	68180
300.501	68190
300.484	68200
300.503	68210
300.485	68220
300.494	68230
300.482	68240
300.497	68250
300.505	68260
300.508	68270
300.495	68280
300.499	68290
300.464	68300
300.501	68310
300.492	68320
300.475	68330
300.487	68340
300.518	68350
300.508	68360
300.509	68370
300.543	68380
300.551	68390
300.588	68400
300.645	68410
300.633	68420
300.613	68430
300.578	68440
300.527	68450
300.517	68460
300.5	68470
300.471	68480
300.485	68490
300.504	68500
300.342	68510
300.284	68520
300.821	68530
301.541	68540
301.095	68550
300.288	68560
300.134	68570
300.393	68580
300.471	68590
300.519	68600
300.538	68610
300.563	68620
300.597	68630
300.684	68640
300.713	68650
300.706	68660
300.674	68670
300.678	68680
300.632	68690
300.604	68700
300.568	68710
300.539	68720
300.543	68730
300.501	68740
300.468	68750
300.495	68760
300.543	68770
300.507	68780
300.492	68790
300.48	68800
300.462	68810
300.507	68820
300.472	68830
300.487	68840
300.46	68850
300.479	68860
300.49	68870
300.523	68880
300.46	68890
300.492	68900
300.508	68910
300.448	68920
300.513	68930
300.51	68940
300.513	68950
300.491	68960
300.493	68970
300.503	68980
300.507	68990
300.503	69000
300.453	69010
300.488	69020
300.486	69030
300.526	69040
300.471	69050
300.489	69060
300.514	69070
300.487	69080
300.449	69090
300.467	69100
300.509	69110
300.479	69120
300.498	69130
300.504	69140
300.508	69150
300.526	69160
300.458	69170
300.53	69180
300.461	69190
300.512	69200
300.58	69210
300.555	69220
300.611	69230
300.616	69240
300.642	69250
300.625	69260
300.598	69270
300.591	69280
300.514	69290
300.516	69300
300.491	69310
300.474	69320
300.444	69330
300.402	69340
300.22	69350
300.601	69360
301.393	69370
301.37	69380
300.534	69390
300.095	69400
300.333	69410
300.472	69420
300.507	69430
300.522	69440
300.59	69450
300.589	69460
300.645	69470
300.66	69480
300.725	69490
300.721	69500
300.645	69510
300.642	69520
300.665	69530
300.575	69540
300.569	69550
300.524	69560
300.515	69570
300.502	69580
300.504	69590
300.494	69600
300.495	69610
300.512	69620
300.483	69630
300.544	69640
300.5	69650
300.486	69660
300.498	69670
300.502	69680
300.521	69690
300.529	69700
300.492	69710
300.52	69720
300.513	69730
300.505	69740
300.476	69750
300.482	69760
300.495	69770
300.498	69780
300.499	69790
300.472	69800
300.496	69810
300.506	69820
300.493	69830
300.492	69840
300.498	69850
300.472	69860
300.501	69870
300.502	69880
300.498	69890
300.511	69900
300.487	69910
300.481	69920
300.488	69930
300.518	69940
300.5	69950
300.483	69960
300.503	69970
300.466	69980
300.539	69990
300.5	70000
300.545	70010
300.542	70020
300.552	70030
300.506	70040
300.558	70050
300.602	70060
300.611	70070
300.665	70080
300.681	70090
300.682	70100
300.594	70110
300.543	70120
300.523	70130
300.511	70140
300.526	70150
300.513	70160
300.484	70170
300.251	70180
300.429	70190
301.155	70200
301.524	70210
300.769	70220
300.19	70230
300.245	70240
300.486	70250
300.534	70260
300.575	70270
300.585	70280
300.587	70290
300.629	70300
300.667	70310
300.644	70320
300.722	70330
300.718	70340
300.666	70350
300.679	70360
300.632	70370
300.586	70380
300.567	70390
300.531	70400
300.538	70410
300.516	70420
300.482	70430
300.514	70440
300.475	70450
300.498	70460
300.519	70470
300.51	70480
300.499	70490
300.523	70500
300.521	70510
300.5	70520
300.486	70530
300.538	70540
300.533	70550
300.49	70560
300.536	70570
300.518	70580
300.48	70590
300.516	70600
300.519	70610
300.513	70620
300.504	70630
300.538	70640
300.539	70650
300.517	70660
300.509	70670
300.572	70680
300.507	70690
300.516	70700
300.513	70710
300.496	70720
300.521	70730
300.501	70740
300.539	70750
300.461	70760
300.54	70770
300.538	70780
300.504	70790
300.517	70800
300.529	70810
300.505	70820
300.505	70830
300.472	70840
300.54	70850
300.526	70860
300.52	70870
300.571	70880
300.575	70890
300.647	70900
300.62	70910
300.637	70920
300.629	70930
300.601	70940
300.61	70950
300.524	70960
300.544	70970
300.509	70980
300.555	70990
300.53	71000
300.339	71010
300.31	71020
300.864	71030
301.498	71040
301.067	71050
300.349	71060
300.137	71070
300.424	71080
300.5	71090
300.591	71100
300.56	71110
300.586	71120
300.634	71130
300.665	71140
300.721	71150
300.734	71160
300.727	71170
300.649	71180
300.653	71190
300.623	71200
300.573	71210
300.562	71220
300.572	71230
300.523	71240
300.498	71250
300.503	71260
300.509	71270
300.511	71280
300.538	71290
300.525	71300
300.513	71310
300.526	71320
300.519	71330
300.523	71340
300.547	71350
300.517	71360
300.527	71370
300.521	71380
300.521	71390
300.5	71400
300.544	71410
300.522	71420
300.534	71430
300.493	71440
300.496	71450
300.523	71460
300.493	71470
300.495	71480
300.51	71490
300.509	71500
300.522	71510
300.518	71520
300.521	71530
300.499	71540
300.485	71550
300.522	71560
300.529	71570
300.488	71580
300.492	71590
300.498	71600
300.52	71610
300.513	71620
300.539	71630
300.505	71640
300.53	71650
300.5	71660
300.532	71670
300.524	71680
300.518	71690
300.521	71700
300.575	71710
300.597	71720
300.668	71730
300.71	71740
300.694	71750
300.687	71760
300.631	71770
300.58	71780
300.573	71790
300.568	71800
300.479	71810
300.512	71820
300.553	71830
300.458	71840
300.258	71850
300.635	71860
301.392	71870
301.379	71880
300.537	71890
300.186	71900
300.338	71910
300.492	71920
300.564	71930
300.598	71940
300.59	71950
300.632	71960
300.633	71970
300.725	71980
300.689	71990
300.72	72000
300.751	72010
300.704	72020
300.679	72030
300.637	72040
300.591	72050
300.565	72060
300.513	72070
300.48	72080
300.539	72090
300.532	72100
300.534	72110
300.532	72120
300.519	72130
300.507	72140
300.546	72150
300.536	72160
300.485	72170
300.518	72180
300.501	72190
300.485	72200
300.505	72210
300.501	72220
300.528	72230
300.528	72240
300.486	72250
300.504	72260
300.539	72270
300.504	72280
300.525	72290
300.507	72300
300.526	72310
300.488	72320
300.473	72330
300.518	72340
300.514	72350
300.534	72360
300.503	72370
300.537	72380
300.551	72390
300.537	72400
300.533	72410
300.541	72420
300.496	72430
300.543	72440
300.505	72450
300.517	72460
300.497	72470
300.509	72480
300.486	72490
300.529	72500
300.512	72510
300.497	72520
300.512	72530
300.533	72540
300.561	72550
300.649	72560
300.659	72570
300.671	72580
300.695	72590
300.631	72600
300.648	72610
300.561	72620
300.539	72630
300.517	72640
300.518	72650
300.54	72660
300.492	72670
300.304	72680
300.462	72690
301.139	72700
301.552	72710
300.832	72720
300.228	72730
300.259	72740
300.505	72750
300.554	72760
300.583	72770
300.575	72780
300.635	72790
300.624	72800
300.688	72810
300.723	72820
300.746	72830
300.7	72840
300.736	72850
300.681	72860
300.602	72870
300.641	72880
300.592	72890
300.54	72900
300.54	72910
300.527	72920
300.531	72930
300.52	72940
300.5	72950
300.485	72960
300.573	72970
300.551	72980
300.524	72990
300.544	73000
300.513	73010
300.519	73020
300.534	73030
300.515	73040
300.503	73050
300.519	73060
300.551	73070
300.525	73080
300.538	73090
300.573	73100
300.516	73110
300.508	73120
300.513	73130
300.499	73140
300.521	73150
300.509	73160
300.523	73170
300.525	73180
300.532	73190
300.513	73200
300.503	73210
300.495	73220
300.521	73230
300.538	73240
300.52	73250
300.55	73260
300.472	73270
300.513	73280
300.528	73290
300.49	73300
300.519	73310
300.488	73320
300.511	73330
300.537	73340
300.546	73350
300.545	73360
300.548	73370
300.564	73380
300.581	73390
300.631	73400
300.658	73410
300.655	73420
300.666	73430
300.628	73440
300.62	73450
300.564	73460
300.562	73470
300.515	73480
300.522	73490
300.487	73500
300.339	73510
300.319	73520
300.876	73530
301.581	73540
301.082	73550
300.372	73560
300.184	73570
300.431	73580
300.544	73590
300.536	73600
300.575	73610
300.585	73620
300.63	73630
300.674	73640
300.696	73650
300.709	73660
300.724	73670
300.707	73680
300.708	73690
300.642	73700
300.594	73710
300.579	73720
300.547	73730
300.551	73740
300.488	73750
300.548	73760
300.55	73770
300.506	73780
300.472	73790
300.495	73800
300.521	73810
300.504	73820
300.575	73830
300.501	73840
300.522	73850
300.55	73860
300.512	73870
300.525	73880
300.496	73890
300.512	73900
300.528	73910
300.508	73920
300.551	73930
300.514	73940
300.536	73950
300.478	73960
300.528	73970
300.528	73980
300.506	73990
300.545	74000
300.51	74010
300.5	74020
300.495	74030
300.523	74040
300.507	74050
300.471	74060
300.535	74070
300.503	74080
300.533	74090
300.522	74100
300.48	74110
300.547	74120
300.536	74130
300.497	74140
300.489	74150
300.515	74160
300.504	74170
300.466	74180
300.515	74190
300.544	74200
300.527	74210
300.612	74220
300.628	74230
300.672	74240
300.683	74250
300.67	74260
300.638	74270
300.607	74280
300.547	74290
300.498	74300
300.532	74310
300.526	74320
300.525	74330
300.411	74340
300.273	74350
300.607	74360
301.359	74370
301.385	74380
300.491	74390
300.162	74400
300.347	74410
300.471	74420
300.563	74430
300.58	74440
300.569	74450
300.585	74460
300.627	74470
300.679	74480
300.738	74490
300.684	74500
300.711	74510
300.715	74520
300.618	74530
300.619	74540
300.576	74550
300.543	74560
300.527	74570
300.576	74580
300.488	74590
300.503	74600
300.517	74610
300.545	74620
300.461	74630
300.499	74640
300.478	74650
300.506	74660
300.473	74670
300.465	74680
300.513	74690
300.498	74700
300.503	74710
300.469	74720
300.508	74730
300.523	74740
300.48	74750
300.507	74760
300.497	74770
300.526	74780
300.509	74790
300.524	74800
300.497	74810
300.511	74820
300.493	74830
300.492	74840
300.485	74850
300.497	74860
300.481	74870
300.5	74880
300.472	74890
300.518	74900
300.547	74910
300.487	74920
300.493	74930
300.463	74940
300.511	74950
300.477	74960
300.525	74970
300.475	74980
300.525	74990
300.474	75000
300.482	75010
300.517	75020
300.537	75030
300.527	75040
300.56	75050
300.627	75060
300.638	75070
300.683	75080
300.643	75090
300.634	75100
300.563	75110
300.476	75120
300.53	75130
300.516	75140
300.506	75150
300.505	75160
300.486	75170
300.259	75180
300.408	75190
301.125	75200
301.505	75210
300.769	75220
300.178	75230
300.219	75240
300.481	75250
300.535	75260
300.536	75270
300.573	75280
300.56	75290
300.627	75300
300.655	75310
300.697	75320
300.678	75330
300.717	75340
300.66	75350
300.656	75360
300.669	75370
300.599	75380
300.561	75390
300.512	75400
300.496	75410
300.509	75420
300.487	75430
300.505	75440
300.472	75450
300.493	75460
300.461	75470
300.498	75480
300.478	75490
300.475	75500
300.451	75510
300.542	75520
300.457	75530
300.528	75540
300.457	75550
300.486	75560
300.455	75570
300.478	75580
300.497	75590
300.471	75600
300.457	75610
300.552	75620
300.472	75630
300.471	75640
300.516	75650
300.46	75660
300.481	75670
300.468	75680
300.502	75690
300.521	75700
300.517	75710
300.508	75720
300.489	75730
300.547	75740
300.507	75750
300.522	75760
300.489	75770
300.504	75780
300.49	75790
300.468	75800
300.484	75810
300.495	75820
300.53	75830
300.491	75840
300.507	75850
300.522	75860
300.489	75870
300.539	75880
300.591	75890
300.606	75900
300.628	75910
300.661	75920
300.615	75930
300.61	75940
300.552	75950
300.539	75960
300.512	75970
300.491	75980
300.468	75990
300.485	76000
300.347	76010
300.264	76020
300.849	76030
301.534	76040
301.078	76050
300.299	76060
300.139	76070
300.378	76080
300.462	76090
300.504	76100
300.511	76110
300.56	76120
300.575	76130
300.623	76140
300.671	76150
300.715	76160
300.714	76170
300.628	76180
300.635	76190
300.624	76200
300.564	76210
300.528	76220
300.5	76230
300.525	76240
300.479	76250
300.458	76260
300.489	76270
300.484	76280
300.473	76290
300.467	76300
300.515	76310
300.475	76320
300.447	76330
300.476	76340
300.506	76350
300.485	76360
300.445	76370
300.495	76380
300.493	76390
300.498	76400
300.51	76410
300.518	76420
300.461	76430
300.497	76440
300.471	76450
300.473	76460
300.489	76470
300.47	76480
300.47	76490
300.522	76500
300.444	76510
300.474	76520
300.469	76530
300.475	76540
300.478	76550
300.47	76560
300.476	76570
300.461	76580
300.506	76590
300.471	76600
300.466	76610
300.487	76620
300.487	76630
300.502	76640
300.468	76650
300.468	76660
300.454	76670
300.48	76680
300.464	76690
300.489	76700
300.532	76710
300.569	76720
300.59	76730
300.641	76740
300.641	76750
300.648	76760
300.617	76770
300.584	76780
300.559	76790
300.467	76800
300.49	76810
300.453	76820
300.464	76830
300.378	76840
300.208	76850
300.597	76860
301.323	76870
301.383	76880
300.509	76890
300.122	76900
300.289	76910
300.509	76920
300.548	76930
300.521	76940
300.53	76950
300.584	76960
300.624	76970
300.621	76980
300.662	76990
300.655	77000
300.678	77010
300.654	77020
300.635	77030
300.577	77040
300.592	77050
300.511	77060
300.515	77070
300.491	77080
300.5	77090
300.515	77100
300.496	77110
300.526	77120
300.469	77130
300.5	77140
300.487	77150
300.5	77160
300.508	77170
300.452	77180
300.481	77190
300.462	77200
300.489	77210
300.502	77220
300.484	77230
300.473	77240
300.47	77250
300.475	77260
300.494	77270
300.472	77280
300.472	77290
300.486	77300
300.484	77310
300.438	77320
300.496	77330
300.488	77340
300.477	77350
300.471	77360
300.491	77370
300.489	77380
300.521	77390
300.498	77400
300.477	77410
300.491	77420
300.477	77430
300.453	77440
300.488	77450
300.522	77460
300.475	77470
300.474	77480
300.51	77490
300.423	77500
300.489	77510
300.522	77520
300.531	77530
300.506	77540
300.512	77550
300.544	77560
300.624	77570
300.638	77580
300.624	77590
300.559	77600
300.569	77610
300.555	77620
300.533	77630
300.475	77640
300.494	77650
300.477	77660
300.46	77670
300.218	77680
300.397	77690
301.146	77700
301.483	77710
300.756	77720
300.192	77730
300.212	77740
300.411	77750
300.526	77760
300.508	77770
300.537	77780
300.608	77790
300.663	77800
300.65	77810
300.644	77820
300.707	77830
300.704	77840
300.638	77850
300.668	77860
300.598	77870
300.582	77880
300.558	77890
300.498	77900
300.469	77910
300.483	77920
300.474	77930
300.492	77940
300.489	77950
300.439	77960
300.505	77970
300.481	77980
300.51	77990
300.486	78000
300.498	78010
300.475	78020
300.498	78030
300.506	78040
300.478	78050
300.447	78060
300.536	78070
300.47	78080
300.49	78090
300.465	78100
300.472	78110
300.495	78120
300.487	78130
300.5	78140
300.493	78150
300.486	78160
300.492	78170
300.481	78180
300.517	78190
300.508	78200
300.509	78210
300.48	78220
300.505	78230
300.482	78240
300.461	78250
300.468	78260
300.498	78270
300.483	78280
300.467	78290
300.519	78300
300.477	78310
300.502	78320
300.478	78330
300.456	78340
300.473	78350
300.486	78360
300.523	78370
300.543	78380
300.575	78390
300.603	78400
300.615	78410
300.614	78420
300.614	78430
300.583	78440
300.538	78450
300.5	78460
300.502	78470
300.484	78480
300.477	78490
300.482	78500
300.352	78510
300.307	78520
300.855	78530
301.479	78540
301.057	78550
300.296	78560
300.173	78570
300.381	78580
300.514	78590
300.501	78600
300.547	78610
300.573	78620
300.594	78630
300.613	78640
300.662	78650
300.67	78660
300.695	78670
300.676	78680
300.625	78690
300.624	78700
300.566	78710
300.572	78720
300.506	78730
300.493	78740
300.489	78750
300.517	78760
300.515	78770
300.468	78780
300.471	78790
300.481	78800
300.49	78810
300.469	78820
300.49	78830
300.5	78840
300.501	78850
300.541	78860
300.52	78870
300.51	78880
300.487	78890
300.484	78900
300.494	78910
300.478	78920
300.478	78930
300.498	78940
300.457	78950
300.488	78960
300.454	78970
300.457	78980
300.483	78990
300.512	79000
300.494	79010
300.49	79020
300.474	79030
300.493	79040
300.489	79050
300.486	79060
300.497	79070
300.487	79080
300.504	79090
300.45	79100
300.482	79110
300.456	79120
300.468	79130
300.472	79140
300.472	79150
300.486	79160
300.472	79170
300.506	79180
300.505	79190
300.511	79200
300.495	79210
300.562	79220
300.63	79230
300.638	79240
300.669	79250
300.646	79260
300.6	79270
300.581	79280
300.534	79290
300.565	79300
300.487	79310
300.496	79320
300.474	79330
300.405	79340
300.228	79350
300.604	79360
301.351	79370
301.34	79380
300.493	79390
300.148	79400
300.329	79410
300.485	79420
300.476	79430
300.549	79440
300.572	79450
300.58	79460
300.633	79470
300.704	79480
300.68	79490
300.704	79500
300.675	79510
300.688	79520
300.659	79530
300.582	79540
300.562	79550
300.52	79560
300.499	79570
300.522	79580
300.494	79590
300.516	79600
300.494	79610
300.502	79620
300.48	79630
300.505	79640
300.494	79650
300.505	79660
300.494	79670
300.497	79680
300.505	79690
300.485	79700
300.455	79710
300.44	79720
300.488	79730
300.461	79740
300.499	79750
300.527	79760
300.468	79770
300.51	79780
300.518	79790
300.487	79800
300.515	79810
300.536	79820
300.501	79830
300.521	79840
300.495	79850
300.481	79860
300.514	79870
300.486	79880
300.491	79890
300.495	79900
300.519	79910
300.48	79920
300.487	79930
300.502	79940
300.496	79950
300.473	79960
300.482	79970
300.516	79980
300.498	79990
300.485	80000
300.492	80010
300.521	80020
300.476	80030
300.541	80040
300.577	80050
300.598	80060
300.64	80070
300.602	80080
300.641	80090
300.644	80100
300.587	80110
300.574	80120
300.547	80130
300.508	80140
300.509	80150
300.535	80160
300.456	80170
300.293	80180
300.423	80190
301.1	80200
301.528	80210
300.777	80220
300.175	80230
300.28	80240
300.473	80250
300.529	80260
300.509	80270
300.559	80280
300.603	80290
300.623	80300
300.664	80310
300.694	80320
300.762	80330
300.776	80340
300.716	80350
300.649	80360
300.631	80370
300.623	80380
300.547	80390
300.505	80400
300.503	80410
300.497	80420
300.561	80430
300.513	80440
300.528	80450
300.445	80460
300.529	80470
300.501	80480
300.511	80490
300.518	80500
300.515	80510
300.505	80520
300.506	80530
300.5	80540
300.509	80550
300.52	80560
300.508	80570
300.509	80580
300.519	80590
300.549	80600
300.525	80610
300.476	80620
300.485	80630
300.489	80640
300.524	80650
300.522	80660
300.531	80670
300.5	80680
300.485	80690
300.488	80700
300.489	80710
300.492	80720
300.514	80730
300.53	80740
300.477	80750
300.51	80760
300.53	80770
300.492	80780
300.511	80790
300.513	80800
300.487	80810
300.502	80820
300.517	80830
300.523	80840
300.562	80850
300.491	80860
300.546	80870
300.566	80880
300.61	80890
300.66	80900
300.656	80910
300.699	80920
300.675	80930
300.608	80940
300.609	80950
300.55	80960
300.563	80970
300.536	80980
300.525	80990
300.469	81000
300.321	81010
300.342	81020
300.87	81030
301.556	81040
301.101	81050
300.369	81060
300.19	81070
300.442	81080
300.528	81090
300.563	81100
300.541	81110
300.601	81120
300.649	81130
300.699	81140
300.724	81150
300.723	81160
300.721	81170
300.682	81180
300.657	81190
300.63	81200
300.619	81210
300.54	81220
300.58	81230
300.527	81240
300.51	81250
300.535	81260
300.55	81270
300.541	81280
300.534	81290
300.479	81300
300.502	81310
300.54	81320
300.519	81330
300.5	81340
300.509	81350
300.539	81360
300.522	81370
300.51	81380
300.499	81390
300.52	81400
300.523	81410
300.531	81420
300.518	81430
300.526	81440
300.555	81450
300.543	81460
300.525	81470
300.534	81480
300.525	81490
300.481	81500
300.501	81510
300.499	81520
300.502	81530
300.529	81540
300.486	81550
300.507	81560
300.554	81570
300.525	81580
300.508	81590
300.535	81600
300.513	81610
300.54	81620
300.523	81630
300.456	81640
300.5	81650
300.51	81660
300.486	81670
300.517	81680
300.492	81690
300.514	81700
300.557	81710
300.598	81720
300.629	81730
300.679	81740
300.68	81750
300.685	81760
300.639	81770
300.607	81780
300.557	81790
300.574	81800
300.516	81810
300.545	81820
300.511	81830
300.439	81840
300.243	81850
300.66	81860
301.37	81870
301.359	81880
300.549	81890
300.181	81900
300.317	81910
300.523	81920
300.532	81930
300.565	81940
300.567	81950
300.647	81960
300.628	81970
300.692	81980
300.749	81990
300.723	82000
300.716	82010
300.69	82020
300.663	82030
300.636	82040
300.621	82050
300.556	82060
300.514	82070
300.491	82080
300.517	82090
300.541	82100
300.525	82110
300.553	82120
300.539	82130
300.561	82140
300.504	82150
300.533	82160
300.523	82170
300.526	82180
300.521	82190
300.523	82200
300.505	82210
300.522	82220
300.512	82230
300.56	82240
300.506	82250
300.527	82260
300.521	82270
300.523	82280
300.533	82290
300.524	82300
300.552	82310
300.543	82320
300.522	82330
300.538	82340
300.524	82350
300.582	82360
300.51	82370
300.523	82380
300.515	82390
300.512	82400
300.489	82410
300.501	82420
300.508	82430
300.555	82440
300.541	82450
300.51	82460
300.515	82470
300.54	82480
300.484	82490
300.544	82500
300.491	82510
300.504	82520
300.57	82530
300.594	82540
300.579	82550
300.649	82560
300.661	82570
300.652	82580
300.688	82590
300.64	82600
300.644	82610
300.607	82620
300.604	82630
300.541	82640
300.508	82650
300.508	82660
300.503	82670
300.308	82680
300.466	82690
301.123	82700
301.51	82710
300.823	82720
300.258	82730
300.246	82740
300.462	82750
300.549	82760
300.545	82770
300.59	82780
300.585	82790
300.655	82800
300.663	82810
300.704	82820
300.744	82830
300.69	82840
300.736	82850
300.662	82860
300.635	82870
300.606	82880
300.571	82890
300.546	82900
300.527	82910
300.56	82920
300.479	82930
300.53	82940
300.517	82950
300.499	82960
300.539	82970
300.524	82980
300.534	82990
300.504	83000
300.5	83010
300.486	83020
300.507	83030
300.502	83040
300.526	83050
300.555	83060
300.523	83070
300.506	83080
300.479	83090
300.514	83100
300.511	83110
300.489	83120
300.491	83130
300.536	83140
300.506	83150
300.505	83160
300.536	83170
300.543	83180
300.532	83190
300.537	83200
300.514	83210
300.517	83220
300.539	83230
300.528	83240
300.498	83250
300.534	83260
300.501	83270
300.544	83280
300.524	83290
300.554	83300
300.545	83310
300.484	83320
300.513	83330
300.519	83340
300.541	83350
300.502	83360
300.564	83370
300.557	83380
300.635	83390
300.595	83400
300.639	83410
300.678	83420
300.625	83430
300.609	83440
300.552	83450
300.543	83460
300.507	83470
300.51	83480
300.535	83490
300.499	83500
300.374	83510
300.328	83520
300.883	83530
301.545	83540
301.124	83550
300.393	83560
300.195	83570
300.407	83580
300.559	83590
300.511	83600
300.533	83610
300.583	83620
300.677	83630
300.653	83640
300.661	83650
300.701	83660
300.721	83670
300.702	83680
300.664	83690
300.659	83700
300.614	83710
300.6	83720
300.541	83730
300.519	83740
300.538	83750
300.576	83760
300.493	83770
300.523	83780
300.502	83790
300.549	83800
300.537	83810
300.51	83820
300.531	83830
300.508	83840
300.503	83850
300.508	83860
300.536	83870
300.492	83880
300.476	83890
300.506	83900
300.48	83910
300.51	83920
300.558	83930
300.507	83940
300.529	83950
300.496	83960
300.524	83970
300.504	83980
300.478	83990
300.498	84000
300.521	84010
300.499	84020
300.556	84030
300.518	84040
300.484	84050
300.49	84060
300.514	84070
300.495	84080
300.508	84090
300.482	84100
300.491	84110
300.533	84120
300.519	84130
300.505	84140
300.536	84150
300.511	84160
300.52	84170
300.499	84180
300.525	84190
300.537	84200
300.577	84210
300.576	84220
300.628	84230
300.677	84240
300.671	84250
300.657	84260
300.619	84270
300.582	84280
300.589	84290
300.531	84300
300.515	84310
300.488	84320
300.527	84330
300.432	84340
300.26	84350
300.626	84360
301.368	84370
301.39	84380
300.552	84390
300.138	84400
300.346	84410
300.473	84420
300.544	84430
300.616	84440
300.592	84450
300.614	84460
300.644	84470
300.697	84480
300.692	84490
300.735	84500
300.692	84510
300.647	84520
300.647	84530
300.588	84540
300.549	84550
300.544	84560
300.55	84570
300.51	84580
300.498	84590
300.498	84600
300.507	84610
300.499	84620
300.462	84630
300.471	84640
300.514	84650
300.499	84660
300.491	84670
300.506	84680
300.518	84690
300.524	84700
300.528	84710
300.447	84720
300.515	84730
300.505	84740
300.496	84750
300.488	84760
300.506	84770
300.484	84780
300.517	84790
300.537	84800
300.473	84810
300.505	84820
300.486	84830
300.547	84840
300.512	84850
300.511	84860
300.501	84870
300.5	84880
300.517	84890
300.536	84900
300.484	84910
300.486	84920
300.493	84930
300.549	84940
300.484	84950
300.498	84960
300.501	84970
300.524	84980
300.499	84990
300.483	85000
300.516	85010
300.497	85020
300.514	85030
300.548	85040
300.555	85050
300.59	85060
300.655	85070
300.664	85080
300.623	85090
300.675	85100
300.598	85110
300.539	85120
300.515	85130
300.5	85140
300.562	85150
300.475	85160
300.421	85170
300.254	85180
300.43	85190
301.099	85200
301.499	85210
300.791	85220
300.216	85230
300.25	85240
300.461	85250
300.519	85260
300.52	85270
300.555	85280
300.55	85290
300.614	85300
300.643	85310
300.718	85320
300.683	85330
300.682	85340
300.645	85350
300.682	85360
300.575	85370
300.559	85380
300.551	85390
300.531	85400
300.542	85410
300.523	85420
300.537	85430
300.496	85440
300.494	85450
300.513	85460
300.499	85470
300.505	85480
300.538	85490
300.462	85500
300.51	85510
300.477	85520
300.493	85530
300.523	85540
300.491	85550
300.479	85560
300.525	85570
300.473	85580
300.519	85590
300.493	85600
300.501	85610
300.483	85620
300.481	85630
300.46	85640
300.506	85650
300.496	85660
300.467	85670
300.468	85680
300.468	85690
300.481	85700
300.53	85710
300.52	85720
300.532	85730
300.507	85740
300.472	85750
300.459	85760
300.504	85770
300.477	85780
300.532	85790
300.475	85800
300.486	85810
300.493	85820
300.495	85830
300.497	85840
300.477	85850
300.533	85860
300.518	85870
300.559	85880
300.583	85890
300.603	85900
300.608	85910
300.64	85920
300.614	85930
300.544	85940
300.541	85950
300.518	85960
300.512	85970
300.487	85980
300.49	85990
300.506	86000
300.33	86010
300.265	86020
300.82	86030
301.51	86040
301.074	86050
300.308	86060
300.149	86070
300.4	86080
300.454	86090
300.513	86100
300.517	86110
300.573	86120
300.568	86130
300.652	86140
300.673	86150
300.698	86160
300.719	86170
300.657	86180
300.667	86190
300.628	86200
300.539	86210
300.522	86220
300.512	86230
300.506	86240
300.504	86250
300.496	86260
300.503	86270
300.447	86280
300.491	86290
300.462	86300
300.505	86310
300.484	86320
300.466	86330
300.544	86340
300.455	86350
300.462	86360
300.5	86370
300.483	86380
300.506	86390
300.449	86400
300.472	86410
300.488	86420
300.492	86430
300.493	86440
300.48	86450
300.494	86460
300.517	86470
300.52	86480
300.467	86490
300.471	86500
300.487	86510
300.484	86520
300.492	86530
300.488	86540
300.467	86550
300.499	86560
300.49	86570
300.459	86580
300.496	86590
300.492	86600
300.504	86610
300.475	86620
300.465	86630
300.512	86640
300.486	86650
300.473	86660
300.484	86670
300.469	86680
300.496	86690
300.508	86700
300.548	86710
300.585	86720
300.616	86730
300.6	86740
300.64	86750
300.694	86760
300.557	86770
300.513	86780
300.531	86790
300.5	86800
300.522	86810
300.52	86820
300.511	86830
300.389	86840
300.218	86850
300.601	86860
301.356	86870
301.331	86880
300.473	86890
300.128	86900
300.318	86910
300.424	86920
300.519	86930
300.51	86940
300.573	86950
300.574	86960
300.626	86970
300.651	86980
300.653	86990
300.658	87000
300.682	87010
300.635	87020
300.58	87030
300.548	87040
300.571	87050
300.509	87060
300.506	87070
300.496	87080
300.482	87090
300.464	87100
300.454	87110
300.476	87120
300.483	87130
300.468	87140
300.445	87150
300.506	87160
300.498	87170
300.455	87180
300.487	87190
